Lead I,Lead II,Lead III,aVR,aVL,aVF,V1',V2',V3',V4',V5',V6'
1.3957580871088013,-2.446351049,-3.842125422,0.525296481,2.618941755,-3.144238236,1287.689804176178,1285.744625619258,2561.9840849006478,77.29968293,81.45200907724119,233.90878686922565
1.4183418758308377,-2.402119108,-3.820559023,0.491888616,2.61945045,-3.111339066,1288.6381085467299,1287.9618504195237,2563.7041632931587,77.50095741,81.54221290693121,233.93140546184588
1.404650413815452,-2.411399728,-3.816121237,0.503374657,2.610385825,-3.113760482,1288.5286480451389,1288.219610354849,2563.274378331642,76.81966918061107,80.80917255,233.20320653585622
1.3812199717942364,-2.433290516,-3.814545222,0.526035272,2.597882597,-3.123917869,1288.1536989966662,1287.9486253886882,2563.2123888863125,77.88241234670565,81.74438527955691,234.22839921244363
1.3552001878226898,-2.471708934,-3.826991749,0.558254373,2.591095968,-3.149350341,1288.3917803223237,1287.977291411994,2563.342484876926,80.28290992522274,84.02232694,236.50972379541378
1.334866559318609,-2.546565722,-3.881509432,0.605849581,2.608187996,-3.214037577,1288.0269449075467,1287.4976123476833,2563.2706683262422,82.02229287366266,85.80437604783171,238.22223764637235
1.3505615160806939,-2.496654208,-3.847343779,0.573046346,2.598952648,-3.171998993,1287.8530827088257,1286.9211532762251,2563.260563822555,80.47633189851115,84.41061417228258,236.73899151356716
1.3714112943882866,-2.406737513,-3.778285124,0.517663109,2.574848209,-3.092511318,1288.3886333465143,1287.5970763799337,2563.4952930112363,78.41337544822358,82.43571456397694,234.70556852918673
1.3697293497249712,-2.40512427,-3.774934297,0.51769746,2.572331823,-3.090029284,1288.0683610788826,1287.9408132270455,2563.4425377647935,78.18995632984907,82.18523655,234.37616676815927
1.3676013775997031,-2.423743444,-3.79144666,0.528071033,2.579524019,-3.107595052,1288.2500767728486,1287.528979031601,2563.489735342864,77.09808582599659,81.0922455,233.1872341264465
1.387449110064587,-2.428880604,-3.816403769,0.520715747,2.601926439,-3.122642186,1288.4775729495218,1287.2556070834844,2563.348672343075,77.01589470844776,81.01638196752626,233.16293519384237
1.3821567340013703,-2.437464321,-3.819673327,0.527653793,2.600915031,-3.128568824,1288.2854002471518,1287.6012351312747,2563.4257004060996,78.10548266667584,82.14624099190448,234.3393036762367
1.3854324374827292,-2.471229897,-3.856748249,0.54289873,2.621090343,-3.163989073,1288.2262092011943,1287.5576859054054,2563.638029537964,79.47657348817984,83.50949277,235.58743497432604
1.4070158338496133,-2.508908122,-3.916000761,0.550946144,2.661508298,-3.212454442,1288.0822419925066,1287.43072,2563.310197354395,81.63336372799344,85.74054792,237.6860261520247
1.4025686988941881,-2.503201028,-3.905837792,0.550316164,2.654203246,-3.20451941,1288.0722184828965,1287.8354565318853,2563.305288516784,81.30359540832836,85.65346239141715,237.60570216720407
1.3932198886770408,-2.459379749,-3.85269184,0.53307993,2.622955864,-3.156035794,1288.2178855709647,1287.5550075510557,2563.728440395878,78.98381712632538,83.47905555,235.42043536145934
1.3243244866259103,-2.441494438,-3.765899157,0.558584976,2.545111822,-3.103696797,1288.1323068457339,1287.5632719758537,2563.9981897860384,78.19931707548696,82.61548647715406,234.52795658510496
1.3210522678913479,-2.443046349,-3.764150164,0.56099704,2.542601216,-3.103598256,1288.0378722593457,1287.685484012124,2564.0222681121318,77.44245786052448,81.75556048859842,233.73277313343027
1.348314533711951,-2.443890182,-3.792261251,0.547787824,2.570287893,-3.118075717,1288.6145274012365,1287.5017711749979,2563.4797772543516,76.95051385425774,81.13247124905611,233.19785016863793
1.3282786962202242,-2.43430084,-3.76263206,0.553011072,2.545455378,-3.09846645,1288.7526542085645,1287.6471496901602,2563.7190191286695,77.76773523543744,81.84740281863833,233.87466713251686
1.3137091230016211,-2.467626272,-3.78139669,0.576958574,2.547552906,-3.124511481,1288.0799705756544,1287.834216244915,2563.9152072354645,78.89148230263447,83.02299079627167,234.91525429004685
1.3047219948304263,-2.529081486,-3.833850418,0.612179745,2.569286207,-3.181465952,1288.2895681654477,1287.8781195954123,2563.4422508342027,80.97472779,85.22484040284414,236.96900360744996
1.3217128867237933,-2.517714045,-3.8395026,0.598000579,2.580607743,-3.178608322,1288.385679304262,1287.986739,2563.601064837965,81.72841368486655,86.17405923,237.91044407059908
1.352352164403443,-2.480638776,-3.833069792,0.564143306,2.592710978,-3.156854284,1288.1845717699716,1287.4759471844975,2563.4940378635797,79.79344447,84.43528294791031,236.22667015668972
1.3784755578911545,-2.451505819,-3.830039465,0.536515131,2.604257511,-3.140772642,1288.1133871015304,1287.2505604433607,2563.1463032504857,78.16224791757264,82.82374111979877,234.6850827332354
1.4345775992948042,-2.395202664,-3.829854694,0.480312532,2.632216147,-3.112528679,1288.0552027775627,1287.7734703544788,2563.664704031112,77.60328715549464,82.10871786813318,234.10984713731307
1.4348637978156915,-2.385917129,-3.820889292,0.475526665,2.627876545,-3.10340321,1288.1398215282181,1287.7578372331054,2563.6721846273285,76.93387216155904,81.22661417936251,233.31178012247065
1.3519803097910936,-2.427757483,-3.779869292,0.537888587,2.565924801,-3.103813387,1288.1811225001939,1287.2755291679473,2563.157234769612,77.27882204,81.38758987938402,233.5188152
1.327200187558896,-2.465844015,-3.793145482,0.569321914,2.560172835,-3.129494749,1288.2988622563464,1287.2471301677242,2563.4577816575206,78.59560774368778,82.62509471042378,234.7639787675075
1.29745098,-2.492777226,-3.790301828,0.597663123,2.543876404,-3.141539527,1288.1545070714794,1287.4037357654875,2563.6541626920157,80.04540991896019,84.16470083,236.11997005096975
1.2644783259362133,-2.529855676,-3.794421246,0.632688675,2.529449786,-3.162138461,1287.7374700769947,1287.6230350950048,2563.971376723539,81.97965598635709,86.23379984421935,237.98958656542464
1.2796694647890507,-2.490726625,-3.770481204,0.60552858,2.525075334,-3.130603914,1288.264276293695,1287.5858439614694,2563.872158925037,80.87425905557453,85.25330039801402,237.07616981210185
1.313269549576073,-2.431149661,-3.744517699,0.558940055,2.528893624,-3.08783368,1288.5579432346278,1287.3865732913075,2563.791728833808,78.29248017833922,82.74271277824548,234.65150144055082
1.331598182,-2.455550184,-3.787235863,0.561976001,2.559417022,-3.121393024,1287.8546470761876,1287.5333448437364,2563.7026353127403,77.58624485278025,81.97532141398436,233.87720246747432
1.3491448071694294,-2.470618739,-3.819862917,0.560736966,2.584503862,-3.145240828,1287.9317236452482,1287.4256148944303,2563.6796768855825,77.20493134453532,81.49572790051158,233.41987991131217
1.3512584886021088,-2.449870848,-3.8012263,0.54930618,2.576242394,-3.125548574,1288.4042209202673,1287.3937210162605,2563.499856872588,77.61734689891924,81.88865755451934,233.77266500851152
1.2992374312139632,-2.465823162,-3.765134532,0.583292865,2.532185982,-3.115478847,1288.3598746105247,1288.016184,2563.3434626011895,78.21145851419408,82.45025687544603,234.20270050136094
1.2833009526103047,-2.494140276,-3.777531032,0.605419662,2.530415992,-3.135835654,1288.013783348179,1287.8115231171494,2563.5812545986496,79.11829862159873,83.26741108927797,235.0016366042178
1.3046583934744815,-2.53695169,-3.841688745,0.616146648,2.573173569,-3.189320217,1287.9548453864938,1287.2290344537387,2563.7394797518887,81.29414632674961,85.45383252909703,237.18479096474715
1.291207176222535,-2.524928848,-3.816221358,0.616860836,2.553714267,-3.170575103,1288.4200864224426,1287.511305029084,2563.639742119011,81.19309350035952,85.51211655866166,237.22198097721915
1.3015006903846054,-2.457668458,-3.759274619,0.578083884,2.530387655,-3.108471539,1288.433565112087,1287.8032888936546,2563.7268554505063,79.27019072062089,83.62279336160792,235.3981743782191
1.3467107953048723,-2.473032068,-3.819801317,0.563160636,2.583256056,-3.146416692,1288.2464278111001,1287.6813521780082,2563.573272286272,77.84929494056216,82.14646209793466,233.97722515307322
1.3507298374061543,-2.547945457,-3.898762228,0.59860781,2.624746033,-3.223353843,1287.7949286770122,1287.5842309727173,2563.377643819158,77.16633694001231,81.36051137,233.22283379221537
1.2851892981921273,-2.553645369,-3.83888902,0.634228035,2.562039159,-3.196267195,1288.0218303831593,1287.6807214355797,2563.7655744607923,77.31853684305588,81.28659476430114,233.2822937962672
1.2407615544362736,-2.528025869,-3.768834864,0.643632157,2.504798209,-3.148430366,1288.312250661506,1287.714628605736,2564.1121202117365,77.86090384222055,81.68756671884344,233.68962695789537
1.2451779080141432,-2.50646583,-3.751730449,0.630643961,2.498454178,-3.129098139,1287.8090438521792,1287.9184474854212,2564.046854268065,78.75580825,82.59531683125445,234.44170840781078
1.2343793949436865,-2.530808442,-3.765247731,0.648214524,2.499813563,-3.148028087,1287.6092729270983,1287.636264937005,2563.8033020988787,81.04983111792114,85.06481400019526,236.71960073440152
1.2231162244663898,-2.558635136,-3.781846299,0.667759456,2.502481262,-3.170240717,1288.4523639049912,1287.319952358039,2563.542132,81.96882839,86.22922208,237.8579699521801
1.217214223851002,-2.520143134,-3.737448173,0.651464455,2.477331198,-3.128795653,1288.4546378658845,1287.6548643218034,2563.203602571003,80.07274940284918,84.40896209,236.183233
1.2134704567354837,-2.46854969,-3.682032773,0.627539617,2.447751615,-3.075291232,1287.7235724270731,1287.6603025255154,2563.2226365146794,78.05408383,82.25637963148647,234.26859354495772
1.2308771761663133,-2.486380155,-3.717302144,0.627751489,2.47408966,-3.10184115,1287.859722829964,1287.4271311235193,2563.380371274998,77.59366376353833,81.54932313,233.77275103277557
1.2144551109497668,-2.507676244,-3.722201866,0.646610566,2.468328488,-3.114939055,1288.2314843501647,1287.4621478950905,2563.809819703462,78.08839949760961,81.88557845877851,234.07164993712857
1.1786426290015353,-2.511591095,-3.690309856,0.666474233,2.434476243,-3.100950476,1288.0429112480117,1287.1423996629092,2563.6509253154713,77.62112174818108,81.37711848501137,233.52731841247603
1.2194433823915478,-2.51718858,-3.736760305,0.648872599,2.478101844,-3.126974443,1288.3474272141705,1287.5608866542393,2563.4570227334652,78.17047890162256,81.86442503374023,234.0580459982371
1.2392173287617896,-2.557587266,-3.796906388,0.659184969,2.518061858,-3.177246827,1288.4574487246473,1287.954873907664,2563.8357936158577,80.47016984645497,84.17523146570527,236.25182428866466
1.1984085625317062,-2.599459255,-3.797953892,0.700525346,2.498181227,-3.198706574,1288.1239404760042,1287.5987806060016,2563.5902711846966,81.82266747474173,85.66762215105418,237.59118975760322
1.1928911990087694,-2.577000661,-3.769978901,0.692054731,2.48143505,-3.173489781,1288.0993415506591,1287.4613055227571,2563.268212971256,80.35423935533541,84.41651207320635,236.2384814021575
1.1818900300318935,-2.538620683,-3.720586907,0.678365326,2.451238468,-3.129603795,1288.4227551501401,1287.714462766396,2563.494829498232,78.16875588595285,82.33322514787497,234.07053549848078
1.1824651039686342,-2.547890197,-3.730469365,0.682712547,2.456467234,-3.139179781,1288.2446915337528,1288.041055,2563.4167767712925,77.85872411966137,81.95311615523103,233.66779276935193
1.2126419079464417,-2.550144443,-3.762897271,0.668751268,2.487769589,-3.156520857,1287.9897233917784,1288.0082920778011,2563.102004502353,77.50735642,81.46779080371668,233.24849253437756
1.2324103688950618,-2.48974078,-3.722224334,0.628665205,2.477317351,-3.105982557,1288.429889668879,1287.6861784666348,2563.452958697926,77.29565026610659,81.11266922,232.97764162264352
1.2227128170873305,-2.475715909,-3.69849501,0.626501546,2.460603914,-3.08710546,1288.4123239004846,1287.638709679903,2563.8044581641325,77.99713868972046,81.78759183,233.5528236379443
1.2286666313657884,-2.522446384,-3.75121696,0.646889876,2.489941796,-3.136831672,1288.0229342104778,1287.8489448162402,2563.705639428924,79.39863857,83.22306155994559,234.77688954469772
1.2217607888380693,-2.566462798,-3.788347321,0.672351005,2.505054055,-3.177405059,1287.9337618656386,1287.5079220174514,2563.895169321772,81.92548825161963,85.79160129194204,237.22642341320363
1.2301938136445236,-2.514663924,-3.744917964,0.642235055,2.487555889,-3.129790944,1288.1240404011871,1287.7513442916702,2563.7579360653194,81.26417752,85.24669752505929,236.68613413882701
1.2716248293676666,-2.454340673,-3.726025709,0.591357922,2.498825269,-3.090183191,1288.286025960362,1288.2796647682121,2563.410062991693,78.83173995491397,82.83582949491667,234.3937608027756
1.2961049868926477,-2.469162485,-3.765337891,0.586528749,2.530721439,-3.117250188,1288.0974787945202,1287.4506998811055,2563.6430739577304,78.20864970898545,82.12779411,233.83379494276815
1.2679222786284463,-2.472193524,-3.740157884,0.602135623,2.504040081,-3.106175704,1288.2096638213764,1287.1571488690445,2563.8576411256427,77.32346886032632,81.19533307445214,233.01729447136478
1.2352015544485961,-2.473633126,-3.708887096,0.619215786,2.472044325,-3.091260111,1287.973871614693,1287.8072462793973,2564.134272881948,77.11832790475239,80.96884184849094,232.8804593691172
1.2520092992043201,-2.506627783,-3.758716318,0.627309242,2.505362808,-3.13267205,1287.721927873221,1287.7116989389785,2563.7021744290746,77.82519737738734,81.72780663983826,233.72922175820642
1.2455219310465075,-2.533836885,-3.779433584,0.644157477,2.512477757,-3.156635234,1288.282480244879,1287.2171563674972,2563.683348195115,78.735266,82.72384524954465,234.75041633951204
1.235184295,-2.550677296,-3.785933001,0.657746501,2.510558648,-3.168305149,1288.4771051551213,1287.3699830139865,2563.8462511529074,81.18713904,85.24798541244837,237.22725550889493
1.2562114002483062,-2.536623616,-3.792906921,0.640206108,2.52455916,-3.164765268,1288.018909,1287.7961889874177,2563.3598732508062,81.66029498567154,86.03296450904533,237.9208933661751
1.2872525778556407,-2.4954352,-3.782742398,0.604091311,2.534997488,-3.139088799,1287.6486649139863,1287.6184944348865,2563.5501885075623,79.53753101577674,84.20850528795498,236.07136746774856
1.328124595073122,-2.483046066,-3.811224141,0.577460735,2.569674368,-3.147135104,1288.0238011188726,1287.6583916403367,2563.7004092561674,78.33272211857684,82.93154006768813,234.94840530151944
1.3389433239064659,-2.466483625,-3.805514936,0.563770151,2.57222913,-3.135999281,1288.5115907230213,1287.5401744856617,2563.3512895450867,77.59132713361754,81.92806956168978,234.18318966625304
1.343743445905421,-2.445412618,-3.789230981,0.550834586,2.566487213,-3.1173218,1288.5808309487627,1287.7017574606707,2563.633389323537,77.11583262307627,81.22672987901983,233.70281629228396
1.348842184530598,-2.4653093,-3.814236347,0.558233557,2.581539266,-3.139772823,1288.3529511073984,1288.1995455691158,2563.9912470999006,77.56939169479702,81.49210340720165,234.11959987086567
1.335058721019525,-2.487403127,-3.822573413,0.576172203,2.578816067,-3.15498827,1288.350932,1287.899491013674,2563.689223,78.40018882705674,82.16490162666798,234.9383402722064
1.3320952343756687,-2.488994354,-3.821184552,0.57844956,2.576639893,-3.155089453,1287.9945455162099,1287.8455306589508,2563.791161325544,80.30230775,84.07885632898811,236.8711421355726
1.346207559326772,-2.510758841,-3.857064632,0.582275641,2.601636096,-3.183911737,1287.9159313010703,1287.988255780238,2563.7113482088207,81.91748718569438,85.83226069270053,238.47150298686694
1.3618851417252753,-2.48967133,-3.851652314,0.563893094,2.606768728,-3.170661822,1288.426556416196,1287.8881605668453,2563.519021986271,80.48647953498876,84.56409713397541,237.18245268769914
1.3817067426089074,-2.464545797,-3.846326253,0.541419527,2.614016498,-3.155436025,1288.2550402502022,1287.6967365215396,2563.730425181191,78.43974440131927,82.58128950647846,235.25633501569143
1.3162494177749964,-2.482603968,-3.798928376,0.583177275,2.557588897,-3.140766172,1288.1811711310643,1287.4983625846364,2563.796875976205,77.63949024217355,81.71274441764506,234.41027524703122
1.3065082576750482,-2.451295352,-3.757892958,0.572393547,2.532200608,-3.104594155,1288.3692438780968,1287.8244777471077,2563.579467749103,77.14969222539152,81.12651702573591,233.8607784750251
1.3583008264505556,-2.449401259,-3.80778717,0.545550216,2.583043998,-3.128594215,1288.0539653833023,1287.8173168474732,2563.392683,77.40949446,81.34580105533105,233.96097837724332
1.3434000289492065,-2.477446688,-3.820900385,0.567023329,2.582150207,-3.149173536,1288.2370512640814,1287.364308332443,2563.4256598974916,78.00463819620626,82.01215279659972,234.41892802383708
1.335851174923245,-2.503860709,-3.839766063,0.584004767,2.587808619,-3.171813386,1288.3659792864876,1287.729271100747,2563.6637999700833,79.37726666281645,83.56059809701172,235.74798797349365
1.3236056315408367,-2.538733546,-3.862403217,0.607563957,2.593004424,-3.200568381,1288.3807408877758,1287.8861521046956,2563.719975869039,81.77740514258464,86.16012164,238.18045568369396
1.3248705768590445,-2.512532825,-3.837459303,0.593831124,2.58116494,-3.174996064,1288.3102248628722,1287.7092870310744,2563.800538162749,81.17676993512141,85.91052926221613,237.79257378247465
1.348648735460122,-2.441280086,-3.790001228,0.546315676,2.569324982,-3.115640657,1288.7018990881636,1287.4472993209279,2563.875987619924,78.81310904,83.75835265,235.5952913609225
1.3363193421645037,-2.400823333,-3.737202734,0.532251995,2.536761038,-3.069013034,1288.3369291246233,1287.8941681391216,2563.834671169613,77.97302943799443,82.79503478423932,234.70679506966476
1.3654711330081317,-2.425254024,-3.790768032,0.529891445,2.578119582,-3.108011028,1287.5480239376268,1288.2098961506165,2563.6594795209717,77.28442233215235,82.05294094304287,233.95200878510914
1.422976454108885,-2.464579457,-3.887603355,0.520801502,2.655289904,-3.176091406,1288.0137569909796,1287.7992199791195,2563.646944718583,77.24223242240153,81.90026381269784,233.81390326208682
1.4277504504955496,-2.447977998,-3.875803551,0.510113774,2.651777001,-3.161890774,1288.4462576824926,1287.5617045295362,2563.9617687407645,77.81526230083972,82.25130362901263,234.2421099433239
1.4169293514912655,-2.449213779,-3.866236996,0.516142214,2.641583174,-3.157725387,1288.1735287637882,1287.672637260708,2563.5295653660764,78.74786448756795,83.04765447565062,235.18430417207767
1.4318230142710449,-2.498663486,-3.930571472,0.533420236,2.681197243,-3.214617479,1287.7612350541165,1287.9688774027047,2563.1988484385556,81.13581540881617,85.39179955288937,237.52988430049325
1.4036653275781137,-2.50409508,-3.907847766,0.550214876,2.655756547,-3.205971423,1288.261688234162,1288.1055613945948,2563.7066726272383,81.60076612037393,85.96947022521219,238.0154541134462
1.358904580695555,-2.463604309,-3.822576778,0.552349864,2.590740679,-3.143090544,1288.2331173557259,1287.8379499145524,2563.8547966547253,79.80042203430753,84.25163556247193,236.34215478772333
1.3582634650519567,-2.425297359,-3.783623031,0.533516947,2.570943248,-3.104460195,1287.8235698305193,1287.6503585587395,2563.1474778522274,78.46409929218655,82.82266536,235.0225356570797
1.3722365890370194,-2.441124368,-3.813460978,0.534443889,2.592848783,-3.127292673,1288.2849300373357,1287.4582601845766,2563.0880226114778,77.16881107,81.36122635447121,233.70634316485783
1.4031366649207924,-2.45060203,-3.853809291,0.523732683,2.628472978,-3.152205661,1288.3366316909123,1287.434657997552,2564.0136374279923,76.94856563620539,81.00995540439587,233.4248104047496
1.4371655936302183,-2.436833315,-3.874022023,0.499833861,2.655593808,-3.155427669,1287.792608948047,1287.469722017708,2564.1392995402425,77.36934017309225,81.34889695842652,233.78715300793854
1.3887060565618468,-2.484119149,-3.872882548,0.547706546,2.630794302,-3.178500849,1288.0106328770703,1287.5113764310436,2563.273362400912,78.36230323,82.29953859899415,234.63606757418933
1.3241096388375106,-2.524144676,-3.848323989,0.600017519,2.586216814,-3.186234332,1288.1932922831027,1287.6918695753948,2563.3732672897972,80.30215712400462,84.36495501,236.36763728666992
1.3132711708492528,-2.510164497,-3.823494093,0.598446663,2.568382632,-3.166829295,1288.0389134088562,1288.1260453711975,2563.583448,81.81448327211837,86.04876447991596,237.7703271416979
1.3115957841115065,-2.481833505,-3.793508587,0.585118861,2.552552186,-3.137671046,1288.247661848205,1287.8205020032478,2563.3810602005015,80.53334094291564,84.92079072281702,236.5696577898259
1.3301299477767363,-2.459293154,-3.78947216,0.564581603,2.559801054,-3.124382657,1288.4162663288525,1287.4412260432784,2563.5835950491924,78.19155236275621,82.75109022952233,234.3281862
1.3631302764141806,-2.475118902,-3.83828611,0.555994313,2.600708193,-3.156702506,1287.943458515313,1287.3658760578173,2563.4735987291497,77.83289654192833,82.36608062269545,233.91923029774938
1.3612302366852977,-2.520149399,-3.881460787,0.579459581,2.621345512,-3.200805093,1287.9372662431113,1287.400633448236,2563.071643675188,77.32538696659208,81.73308387451179,233.3694284802976
1.3433385951785801,-2.500349363,-3.843742791,0.578505384,2.593540693,-3.172046077,1288.397284800063,1287.1818101074282,2563.5076468788793,77.15880893643971,81.41199831624894,233.13496749076756
1.3568008228047934,-2.473240379,-3.830095747,0.558219778,2.593448285,-3.151668063,1287.951535522633,1287.1563002423875,2563.899417,78.12745832476398,82.25925259953323,233.91782682461502
1.3471909016798802,-2.509133406,-3.856418038,0.580971252,2.60180447,-3.182775722,1287.7648453382697,1287.461740978126,2563.529110196411,79.32090807315518,83.50866070366374,234.91635662020622
1.3336832780149526,-2.512071705,-3.845852026,0.589194214,2.589767652,-3.178961866,1288.092651533366,1287.5496850949917,2563.5002077619442,81.52365153462767,85.87390505715378,237.0696020106517
1.3420033537126836,-2.420204632,-3.762269202,0.539100639,2.552136278,-3.091236917,1288.2783100306328,1287.5231539158171,2563.658214093103,81.33468135343463,85.90827810680885,236.97910606775835
1.3631809297116773,-2.277677143,-3.640898837,0.457248107,2.502039883,-2.95928799,1288.3258230763906,1287.8262223887384,2563.616994200503,78.65632278554236,83.27368774712055,234.37629318315138
1.3830243154839459,-2.19125333,-3.574330972,0.404114507,2.478677644,-2.882792151,1288.282105883014,1287.9859325965112,2563.9157514428207,77.70482712,82.16327834672741,233.4156331879205
1.3491163574993896,-2.139572453,-3.488768817,0.395228048,2.418942587,-2.814170635,1288.1231248466681,1287.712997364874,2563.7519103343793,77.21524661,81.48960711483716,232.9571582673136
1.233995664454833,-2.119344935,-3.353421178,0.442674635,2.293708421,-2.736383056,1288.1992500720814,1287.6526838230332,2563.595072152784,77.13545710486733,81.14204749410818,232.87860185273212
1.0949500531134646,-2.153403987,-3.248449967,0.529226967,2.17170001,-2.700926977,1288.0427295241414,1287.5905033432916,2563.653489155772,77.69531103,81.53830684193503,233.38745997413452
0.9352501330828882,-2.180057451,-3.115397008,0.622403659,2.025323571,-2.64772723,1288.371777884177,1287.6837432862383,2563.502365565267,78.60336038959205,82.49109987,234.2624571446078
0.7562312608172364,-2.238322051,-2.994630331,0.741045395,1.875430796,-2.616476191,1288.2590383823865,1287.5067282068533,2563.785172695618,81.07061870777169,85.10850735528601,236.70838532778876
0.5589484116741437,-2.331969413,-2.891008693,0.886510501,1.724978552,-2.611489053,1287.767447,1287.6563925800529,2563.7003560424346,81.77430576488193,85.99697914,237.5473609743727
0.31362878694865176,-2.390775527,-2.704464083,1.03857337,1.509046435,-2.547619805,1288.1011537820523,1287.6794852165945,2563.2906650713103,79.56551072774704,83.85544869627446,235.5294201603746
0.2856331985727535,-2.299063556,-2.584743041,1.006715179,1.43518812,-2.441903298,1288.3906220452081,1287.3682403683151,2563.4217585451015,77.91587738209586,82.15622702667122,233.93832208472088
0.42640454951465545,-2.128586697,-2.555080768,0.851091074,1.490742659,-2.341833732,1288.3150804814277,1287.2176811595018,2563.4105257185756,77.37992367624955,81.49964208024223,233.4332736043503
0.5222889065019387,-2.055740359,-2.578131565,0.766725726,1.550210236,-2.316935962,1288.3536067339885,1287.4814270311658,2563.4672524386983,77.19613431055755,81.16646121423642,233.34690502737664
0.6271646369465571,-2.022630085,-2.649891406,0.697732724,1.638528021,-2.336260745,1288.2146265338215,1287.809054631131,2563.5578750389436,77.47510305853015,81.35949235907144,233.7573213875003
0.7591610050808911,-1.979562317,-2.738825079,0.610200656,1.748993042,-2.359193698,1288.000050353103,1287.707628421147,2563.4532002512146,78.23964230124285,82.13074267,234.63945164806643
0.9285300222793113,-1.942884911,-2.871511486,0.507177444,1.900020754,-2.407198198,1288.1007671797752,1287.6624937807983,2563.603109685651,80.16266723,84.07769853177938,236.61437128485758
1.1176762385491785,-1.979784283,-3.097546214,0.431054022,2.107611226,-2.538665249,1287.7993007997256,1287.8657367244007,2564.0143487766627,81.85300945242427,85.86773498,238.39319403811888
1.2639318721292492,-2.017526502,-3.281584036,0.376797315,2.272757954,-2.649555269,1287.649388843557,1287.5788174249399,2563.5130782836363,80.31960158,84.48256724134902,237.08651394745837
1.3809502241272062,-2.052205081,-3.433262462,0.335627428,2.407106343,-2.742733772,1288.4499749638824,1287.3429662958029,2563.3668244613177,78.24542028324085,82.41872265492789,235.28817111984915
1.4954177390741772,-2.172377211,-3.667863152,0.338479736,2.581640445,-2.920120181,1288.7047265160636,1287.6310481457192,2563.7286276808245,77.62748445130045,81.73649325111784,234.8304421946908
1.5340812085769837,-2.323252518,-3.857410875,0.394585655,2.695746042,-3.090331697,1288.8098362174392,1287.536715533758,2563.579424953159,77.09876281713059,81.14774231392846,234.3504053943335
1.5446529717482156,-2.421698523,-3.966442244,0.438522776,2.755547608,-3.194070383,1288.6051064957958,1287.6966365641629,2563.6484802803293,77.24766169582185,81.25087907563487,234.5567329311678
1.6026574995413854,-2.481754934,-4.08448934,0.439548717,2.84357342,-3.283122137,1288.2786342753263,1288.0409034795284,2563.5028344141106,78.00727831901317,82.04368802183235,235.31875606378853
1.7129718769044122,-2.494596087,-4.207655893,0.390812105,2.960313885,-3.35112599,1288.1826419535053,1287.8652603948472,2563.6818531106182,79.37415406711571,83.50484955746654,236.65654699269183
1.7169965738349557,-2.515296268,-4.232354799,0.399149847,2.974675686,-3.373825534,1288.497834657699,1287.6566052033156,2563.9302482843755,81.75336122035444,85.98609131826159,239.01881331676793
1.662554536933131,-2.54602321,-4.208623018,0.441734337,2.935588777,-3.377323114,1288.5137110001922,1287.7588376454778,2563.4022311943986,81.12506903327245,85.49222282975113,238.4973284301761
1.6629472886471452,-2.548599747,-4.21164153,0.442826229,2.937294409,-3.380120638,1288.156699576912,1287.807515253925,2563.550217699122,78.63234241260152,83.02724942,236.12435158485508
1.6637324793074253,-2.564422388,-4.228253584,0.450344954,2.945993032,-3.396337986,1288.0618737122174,1287.9609746849246,2563.753046,77.63555982028308,81.89660137856632,235.1339252190859
1.6650278810220203,-2.577890311,-4.242965094,0.456431215,2.953996488,-3.410427702,1288.1303693091454,1287.6023824760873,2563.136736126616,77.17037342827273,81.25718120519002,234.7039367128024
1.6530602234469212,-2.574131702,-4.227261196,0.460535739,2.94016071,-3.400696449,1287.9633601446444,1287.7050601543644,2563.199161884946,77.37949259632988,81.30618317595369,234.92320912794884
1.6376663362090729,-2.55667275,-4.194432015,0.459503207,2.916049175,-3.375552382,1287.9898439038504,1287.812821253849,2563.470521168618,77.65528104002323,81.54507315411603,235.09803193503393
1.5910988788111604,-2.553116292,-4.144276062,0.481008707,2.86768747,-3.348696177,1288.1341593868485,1287.334877049407,2563.495198170633,78.75642215,82.66897777970587,236.0586029859967
1.5567779365545427,-2.564238138,-4.121079389,0.503730101,2.838928663,-3.342658764,1288.0557357814741,1287.2304517531775,2563.6374749813685,81.40082931868253,85.31004439046036,238.52351201406796
1.5462973790276597,-2.510360856,-4.056730573,0.482031738,2.801513976,-3.283545714,1288.1225913427375,1287.4105597253865,2563.335498,81.35182385825614,85.31348278636817,238.4571179726733
1.5289100249824759,-2.443661182,-3.972644809,0.457375578,2.750777417,-3.208152995,1288.0507524137686,1287.6588207362524,2563.311434806209,79.44238726152497,83.36925725441228,236.60688811650672
1.518805755018758,-2.413356956,-3.932257965,0.4472756,2.72553186,-3.17280746,1288.0253406117654,1287.6445994993708,2563.9917627957257,78.1068826,81.87146173569992,235.26130365126068
1.4383290540465443,-2.412228517,-3.85066813,0.486949732,2.644498592,-3.131448324,1288.1072391647028,1287.9077468826938,2563.7724257721416,77.19176472859574,80.78859231811671,234.24876648104237
1.3843380195927282,-2.406775455,-3.791202614,0.511218718,2.587770317,-3.098989034,1288.151587,1287.6236204691415,2563.574695858685,77.16229627015639,80.67694953819941,234.0732138678761
1.401899396375103,-2.393175366,-3.795137054,0.495637985,2.598518225,-3.09415621,1288.5134318617193,1287.1135764585092,2563.7428280635836,77.53240757282495,81.15394574,234.3892637317739
1.3899044823079405,-2.420811607,-3.810783184,0.515453563,2.600343833,-3.115797396,1288.013382437151,1287.2688952686424,2563.4938860636353,78.24353174,81.98916075573129,235.0928304667425
1.3428354276170575,-2.471863613,-3.81475763,0.564514093,2.578796529,-3.143310621,1287.9710353755838,1287.5502619387996,2562.944600241838,80.21401702850139,84.00137836004855,237.0464292
1.325241331559702,-2.4964463,-3.821734626,0.585602484,2.573487979,-3.159090463,1288.4295504735323,1287.6708074367161,2563.2898418022023,81.84751254304707,85.76180485520314,238.7629139898444
1.336970992689416,-2.445800814,-3.782850379,0.554414911,2.559910686,-3.114325597,1288.1806123731415,1287.3152603201984,2563.7994515871906,80.38426425139983,84.44677136494825,237.46798589226407
1.369760829415141,-2.366810679,-3.736654356,0.498524925,2.553207593,-3.051732517,1287.9389383638122,1287.5490252862048,2563.8365982750815,78.03408056640667,82.17631696282479,235.1504213711734
1.374177225183143,-2.36679282,-3.741081892,0.496307798,2.557629558,-3.053937356,1287.6500214923785,1288.0932464052833,2563.879865627651,77.37202634133608,81.43265216987945,234.4560554524939
1.3834053229890628,-2.36596253,-3.749467301,0.491278603,2.566436312,-3.057714915,1287.918921464931,1287.815546974824,2563.907013,76.95294679487371,80.93936150741916,234.03046596360787
1.4108032085914686,-2.378963538,-3.789821619,0.484080165,2.600312414,-3.084392578,1288.6267251497293,1287.6891664729264,2563.6551391297457,77.19376235471982,81.19993419014159,234.25273950138214
1.3792611436002495,-2.430352058,-3.809675289,0.525545457,2.594468216,-3.120013673,1288.580003967194,1287.5386793172095,2563.5310271337876,78.07490605713114,82.07068946254697,235.10594432628795
1.3196151319410028,-2.435250556,-3.754924945,0.557817712,2.537270038,-3.095087751,1288.314192549847,1287.244423137166,2563.596728160166,79.35980242861741,83.36809151336891,236.2990527319621
1.2890335139392677,-2.475675901,-3.76478446,0.593321193,2.526908987,-3.12023018,1288.0509686166988,1287.5374518820684,2563.396176460143,81.75794509,85.93791816348413,238.65235703051394
1.281364114124734,-2.458718316,-3.740166196,0.588677101,2.510765155,-3.099442256,1288.170888048211,1287.829435649221,2563.3740332143384,81.51083512100952,85.90436221960721,238.50555648755417
1.3234655544798575,-2.379657476,-3.703155372,0.528095961,2.513310463,-3.041406424,1288.3531422481678,1287.7689519441608,2563.6273595582115,78.91001588,83.36283384561257,235.98406114211255
1.3508188425311258,-2.380485235,-3.731368271,0.514833196,2.541093557,-3.055926753,1288.3757882997586,1287.862679454422,2563.6101147083323,77.77861560572394,82.12430097138255,234.93639150042955
1.3410713142770256,-2.392337916,-3.733515599,0.525633301,2.537293457,-3.062926758,1288.2394329591589,1287.725273323918,2563.622597389092,77.26240471,81.45302052172342,234.55182940990986
1.3350544676116138,-2.373532546,-3.708656835,0.519239039,2.521855651,-3.041094691,1287.860787885287,1287.702046661881,2563.660992706474,77.42349135205309,81.38394604677212,234.70387108149373
1.3051773825076343,-2.38737846,-3.692613777,0.541100539,2.49889558,-3.039996118,1287.8739822302687,1287.7989521382776,2563.576174862078,78.34763663387855,82.17544988818408,235.62929453152333
1.3175564040818217,-2.401822033,-3.719477157,0.542132814,2.51851678,-3.060649595,1288.1174534719048,1287.8015313521726,2563.9732018974655,78.40188861181102,82.34095016354901,235.79865869597242
1.327350113999973,-2.452509934,-3.779986526,0.56257991,2.55366832,-3.11624823,1288.174176364942,1287.8164406936653,2564.100625902132,80.99391029,85.05229342747114,238.3935785149152
1.2889584363765954,-2.473647674,-3.762717613,0.592344619,2.525838025,-3.118182644,1288.0504265985799,1287.6220089347653,2563.6636069326582,81.94203011,86.10256310994905,239.4282942632101
1.3221406038265946,-2.428651764,-3.7508538,0.55325558,2.536497202,-3.089752782,1288.3064901157595,1287.4657400610558,2563.714136176644,79.43644156817071,83.68729830598996,237.0729513601955
1.3706566099735493,-2.391080419,-3.761778207,0.510211905,2.566217409,-3.076429313,1288.3327775536738,1287.4702903513808,2563.7383611736027,78.03559130454452,82.22051116487059,235.66739970440233
1.352380007897857,-2.362479689,-3.714922306,0.505049841,2.533651157,-3.038700998,1287.4442632009473,1287.633045668454,2563.6092968156886,77.40727901,81.35888938151152,234.98033140492265
1.316720041,-2.382180619,-3.698990049,0.532730289,2.507855045,-3.040585334,1287.649422275099,1287.2952264269654,2563.5078697693934,77.47797895350985,81.21681723486041,234.9658823622086
1.3282644093160751,-2.404222301,-3.732584453,0.537978946,2.530424431,-3.068403377,1288.283836451967,1287.3635063597637,2563.505620035519,78.40104854849255,82.02740618104666,235.85075202398272
1.3245847947486293,-2.396413679,-3.721066248,0.535914442,2.522825521,-3.058739963,1288.209445856017,1287.3595090641309,2563.791768,78.87920761577926,82.48185448073167,236.30143936644146
1.2743415341937128,-2.44411086,-3.718522239,0.584884663,2.496431887,-3.08131655,1288.435886178942,1287.190474961256,2563.7236775484125,80.75907072945854,84.39664920004522,238.1305246261852
1.2779937501243743,-2.468676754,-3.746759349,0.595341502,2.512376549,-3.107718051,1288.5690557890928,1287.789517240804,2563.466542542297,81.58353406574834,85.46225093570973,239.06631012545375
1.3094412067484544,-2.428656703,-3.738194151,0.559607748,2.523817679,-3.083425427,1288.212617396932,1287.4693678882252,2563.7237242641786,80.02819153,84.14214356656628,237.58785690334014
1.310058106725039,-2.378890225,-3.689024053,0.534416059,2.49954108,-3.033957139,1288.1526733225157,1287.3443721542744,2563.669514351216,78.10460749358882,82.24023598767127,235.6422334148644
1.3061055517940523,-2.362767487,-3.668957113,0.528330968,2.487531333,-3.0158623,1287.9241355626787,1287.4342192934837,2563.182215609667,77.80127383082448,81.79324382257728,235.2520092417354
1.2809182217549806,-2.376886787,-3.657888155,0.547984283,2.469403188,-3.017387471,1287.906929664254,1287.2973696592865,2563.269610806079,78.28940688471364,82.19131040751208,235.5982918233222
1.2838632098437792,-2.353100819,-3.637045782,0.534618804,2.460454496,-2.9950733,1288.2197327560611,1287.5772467658562,2563.4398539945846,77.76889308,81.70551334,234.9964909490698
1.306943492,-2.352233397,-3.659262247,0.522644952,2.48310287,-3.005747822,1288.1154957442554,1287.5731306246275,2563.714690852122,77.93196310382726,81.87533711019563,235.06904163225832
1.299076757215055,-2.415647162,-3.714787561,0.558285202,2.506932159,-3.065217361,1288.2635820172652,1287.2394832359773,2563.7861568351723,79.82678871500508,83.78446745575079,236.89292335434283
1.2948226806314116,-2.442073366,-3.73697335,0.573625343,2.515898015,-3.089523358,1288.5356518314804,1287.4754835705614,2563.6946714785213,81.99381142013902,86.09742158651702,239.11697964037552
1.2985064993586666,-2.394546405,-3.693137269,0.548019953,2.495821884,-3.043841837,1288.2222013220733,1287.6231425903684,2563.6594722530326,81.27079392,85.61102985815776,238.59534325125335
1.3133384464691502,-2.359270572,-3.672687183,0.522966063,2.493012815,-3.015978877,1288.3682116351786,1286.963098685939,2563.5722405372267,78.73815783,83.18396020947148,236.1996768044572
1.315879006347359,-2.364732005,-3.680669831,0.524426499,2.498274418,-3.022700918,1288.355845383597,1287.2327101505462,2563.6119727532005,77.90832003171353,82.28539449,235.31461223362234
1.2951051494389592,-2.351479783,-3.646650472,0.528187317,2.470877811,-2.999065127,1288.1823837783058,1287.495307715475,2563.4722561384638,77.08406588601669,81.33579599024277,234.40704515253273
1.2804142103474774,-2.343850922,-3.624326438,0.531718356,2.452370324,-2.98408868,1288.229198618499,1287.4741210662457,2563.711565,76.96775728800134,81.03998562104282,234.1126373731194
1.3074922339833348,-2.344109209,-3.65166798,0.518308488,2.479580107,-2.997888595,1288.2176876747371,1287.3379508978096,2563.8870650163353,77.82508235,81.88418080975708,234.81190657762141
1.2991947473300156,-2.360798301,-3.66007772,0.530801777,2.479636233,-3.010438011,1288.2685135206832,1287.8079937376974,2563.515305202453,78.98273109,83.21132034637668,235.88703564180256
1.280321270614624,-2.391243031,-3.671634351,0.55546088,2.475977811,-3.031438691,1288.038905362772,1287.796443726401,2563.3730118000954,81.58685538870816,85.97714536108913,238.3467766
1.2774991989964335,-2.405713201,-3.683329393,0.564107001,2.480414296,-3.044521297,1287.9372001380887,1287.2956016673209,2563.524403,81.78148815434308,86.2939836,238.63150709033442
1.300430083422242,-2.383708133,-3.684234932,0.541639025,2.492332508,-3.033971533,1288.1145440326668,1287.7578424017765,2563.7014874252063,79.35294192755039,83.87449067396994,236.4119139
1.2956399409564225,-2.348644341,-3.644371542,0.5265022,2.470005741,-2.996507941,1288.2623243814432,1287.5464985138012,2563.213454012337,78.24003655729686,82.68529203564917,235.27696684338295
1.2729650312586096,-2.309804003,-3.582892807,0.518419486,2.427928919,-2.946348405,1288.4237386491202,1287.2923198069568,2563.3451445786377,77.55764573599909,81.92670206416409,234.5213428227536
1.2783693310956166,-2.308228909,-3.586691656,0.514929789,2.432530493,-2.947460282,1288.2851465377207,1287.3788059563856,2563.7864303292367,77.28970098840465,81.63795340824046,234.30760536431967
1.2618817028312923,-2.356917837,-3.618877065,0.547518067,2.440379384,-2.987897451,1288.1598936189534,1287.550241,2563.560002841331,78.18407016937311,82.48022137101859,235.21134214228624
1.253165586556422,-2.355054277,-3.608319354,0.550944345,2.43074247,-2.981686816,1287.9309915702288,1287.5989542942662,2563.5177937961867,78.05090875572003,82.18117605877312,235.00383383539182
1.2250281954943958,-2.349512592,-3.57461735,0.562242198,2.399822773,-2.962064971,1287.5063600465717,1287.2689450217024,2563.3462084542707,80.1441638,84.09962979500092,237.02876561549633
1.2142194122820487,-2.340564646,-3.554833625,0.563172617,2.384526519,-2.947699136,1288.264979457763,1287.3000881239338,2563.3706791177265,82.07904317991819,86.09442167467463,239.0434832774695
1.2464108503417999,-2.306520757,-3.552982962,0.530054953,2.399696906,-2.92975186,1288.4566825006275,1288.1151717649002,2563.8351095350145,80.23539241,84.39658695163354,237.36092910754107
1.2464547031094932,-2.302206129,-3.548716297,0.527875713,2.3975855,-2.925461213,1287.9007959346636,1288.1063002190904,2564.0738432924427,78.42633304783007,82.59852196348436,235.6301858028795
1.2516485490734968,-2.319891947,-3.571624918,0.534121699,2.411636733,-2.945758433,1288.1525624609942,1287.4525589774967,2563.6086257396532,78.06741409292358,82.17606573466514,235.26870754219883
1.292986025551461,-2.283619602,-3.57670895,0.495316788,2.434847488,-2.930164276,1288.2207478848852,1287.4640438007718,2563.3133603016304,76.98253198590609,81.01792447986496,234.23139220319993
1.2883136280015868,-2.278102833,-3.566504678,0.494894603,2.427409153,-2.922303756,1287.6716335358624,1287.9580149099181,2563.3409546818493,76.89941478084366,80.69370993328585,234.0993271557223
1.2839728238655121,-2.322415878,-3.606462216,0.519221527,2.44521752,-2.964439047,1287.8976916674276,1287.9122832966393,2563.345600938371,77.80503766049995,81.42850547,234.83244940510787
1.2994327794887202,-2.323259402,-3.622742794,0.511913311,2.461087787,-2.973001098,1288.162957923099,1287.5400801240828,2563.688256066223,79.42041602852393,83.09190968462742,236.30907522695466
1.2579902345008758,-2.342076679,-3.600149992,0.542043222,2.429070113,-2.971113336,1287.7989515125053,1287.4265486282989,2564.215931014851,82.07439962442653,85.84842503343816,238.9521749125491
1.2458579692298821,-2.330696577,-3.576687077,0.542419304,2.411272523,-2.953691827,1287.596471327964,1287.8580061294963,2564.0261127068206,81.17916771471637,85.1689074,238.17694049003748
1.266740187816057,-2.26969926,-3.536522749,0.501479536,2.401631469,-2.903111005,1288.313860454574,1288.2681395657032,2563.6559913645983,78.86511110155756,82.98932256377428,235.9474493192705
1.291823006,-2.232763333,-3.524625472,0.470470164,2.408224239,-2.878694403,1288.3958646458182,1287.6460186282568,2563.7092308967203,78.08529806,82.14758273989119,235.14436699730518
1.3147826665085893,-2.236777988,-3.551632197,0.460997661,2.433207432,-2.894205092,1288.3802317446582,1287.2751303311877,2563.8369548964542,77.25623693350113,81.17729411584098,234.2757406885757
1.3032409528069793,-2.265138649,-3.568464657,0.480948848,2.435852805,-2.916801653,1288.1493977177847,1287.5571472592687,2563.648892,77.29919600662738,81.01525587812827,234.28709958505783
1.2838467239877704,-2.275258448,-3.559164267,0.495705862,2.421505495,-2.917211357,1287.9624903991094,1287.7908352098714,2563.430671182174,78.05451586722916,81.64189021934422,234.98111799851623
1.256209231934902,-2.291132634,-3.547408718,0.517461701,2.401808975,-2.919270676,1288.4283564110613,1287.8330637192007,2563.4982120924183,78.85983566151032,82.39533741270402,235.74109322369128
1.2309308449419922,-2.347868174,-3.5788811,0.558468665,2.404905972,-2.963374637,1288.6180488718137,1287.6440601861746,2563.765042187694,81.27626607,84.78097632,238.12290633060275
1.2256810468454078,-2.331083146,-3.556852823,0.552701049,2.391266935,-2.943967984,1288.237740582995,1287.7211938101866,2563.473242643956,81.84035410928807,85.47225136551448,238.7658763
1.2318923354782558,-2.255509808,-3.487478673,0.511808736,2.359685504,-2.871494241,1287.801813953485,1287.7022246876468,2563.1596860482036,79.65221033997796,83.4245371,236.6912065476827
1.256775229429942,-2.259034379,-3.515855532,0.501129575,2.386315381,-2.887444956,1287.8662567504443,1287.7007416940612,2564.0822172153216,78.03980516738599,81.88023429,235.0616329247837
1.301284452160675,-2.272608997,-3.573961588,0.485662272,2.43762302,-2.923285292,1288.2127463193478,1288.029249181689,2564.2047908244153,77.21196357,81.04172267137726,234.13955942799453
1.2878250001925884,-2.254197721,-3.542096843,0.483186361,2.414960922,-2.898147282,1288.2434973169031,1287.6733323995031,2563.380774656806,77.60801025934167,81.29631797707145,234.2552626308239
1.2217279679559403,-2.238473492,-3.460252877,0.508372762,2.340990422,-2.849363184,1288.4486443691183,1287.6707098975317,2563.4286784932474,77.98123743140873,81.53742404,234.3878889700471
1.2054943092245554,-2.197896169,-3.403472582,0.49620093,2.304483445,-2.800684375,1288.6781678402845,1287.7474932713467,2563.7470006110034,78.13939307895845,81.53585401585255,234.43500502254662
1.1876579345116152,-2.247504501,-3.43526392,0.529923283,2.311460927,-2.84138421,1288.1930763709204,1287.4312902114032,2563.251335734779,80.51874368431275,83.83002299811342,236.60121562189408
1.1617482043862823,-2.313019793,-3.474869781,0.575635794,2.318308993,-2.893944787,1288.1030570233243,1287.553586619601,2563.0522272896237,82.11697085156834,85.62806715962098,238.08284539101834
1.2013122948156723,-2.253465813,-3.454847699,0.526076759,2.328079997,-2.854156756,1288.1736831826004,1288.009677437403,2563.1762360869047,80.62941609033334,84.30561011144569,236.6367414580488
1.2645256855961027,-2.167843232,-3.432409307,0.451658773,2.348467496,-2.800126269,1288.3794989512837,1287.7936356970883,2563.3611823792626,78.39035201240367,82.11825910291473,234.51830879293033
1.2914096677732692,-2.130287828,-3.421773726,0.41943908,2.356591697,-2.776030777,1288.1658665074417,1287.522147551509,2563.563878207128,77.56957567119242,81.23460843721945,233.71568514996014
1.2525008700556692,-2.14504319,-3.397639616,0.44627116,2.325070243,-2.771341403,1288.1591068027483,1288.1062789587925,2562.8535882219144,77.65445699,81.07060622237613,233.65169332940508
1.2288867198259505,-2.162215338,-3.391192833,0.466664309,2.310039777,-2.776704086,1288.3219359395578,1287.717914253433,2562.5742474547997,77.60604793670697,80.78022572,233.41987013883534
1.2302785273047077,-2.165131877,-3.395489611,0.467426675,2.312884069,-2.780310744,1288.1389415415488,1287.4732992588315,2563.158136065223,78.17489300841748,81.29158849438885,233.81102549426822
1.2213439445325271,-2.197981968,-3.419396955,0.488319012,2.32037045,-2.808689462,1288.1147914326473,1287.7546782941467,2563.278765521233,79.90385712080483,83.11745967567884,235.37907399235286
1.2179960660989928,-2.240873826,-3.458960463,0.51143888,2.338478265,-2.849917145,1288.0424886128028,1287.5273540800767,2562.746642276556,81.88862034,85.16700593,237.22290310545287
1.1915409815677722,-2.221154386,-3.412787826,0.514806702,2.302164404,-2.816971106,1287.8224598285408,1287.6417566222408,2562.962928445533,81.30899155865437,84.70820212690766,236.6446173
1.1824103473641754,-2.158679723,-3.341171701,0.488134688,2.261791024,-2.749925712,1287.9060655794797,1287.3831638185927,2563.554963096097,78.92706208000244,82.46519208406181,234.37723527191815
1.2074329668776513,-2.110581832,-3.318131942,0.451574433,2.262782455,-2.714356887,1288.4255876707634,1287.8521204208548,2563.5434679881164,77.77932163967303,81.26241564,233.2343060567852
1.213382558709448,-2.096161024,-3.309643031,0.441389233,2.261512795,-2.702902028,1288.4729775988146,1287.6959054479648,2563.850918641543,77.64252991437618,81.04449363558359,232.99436062405007
1.1855228120150303,-2.052404544,-3.237982055,0.433440866,2.211752434,-2.6451933,1288.3667677614878,1287.1661202557132,2563.5501912769873,77.49693440004535,80.92155920095168,232.81270685749828
1.1810290471968723,-2.067429543,-3.248535182,0.443200248,2.214782114,-2.657982362,1288.403301265182,1287.5119052376888,2563.278452939408,77.92502959632569,81.36980262508678,233.21216943094814
1.1837736718611107,-2.163659479,-3.347504922,0.489942904,2.265639297,-2.755582201,1288.4942488453637,1287.6325743843813,2563.5991459777333,78.96377347623857,82.39449852597562,234.16118351588898
1.185393930507144,-2.196306184,-3.38176289,0.505456127,2.28357841,-2.789034537,1288.408625190391,1287.7918715231663,2563.785679395985,81.45786648436196,84.98995668713293,236.53951645333947
1.1905388410461635,-2.158571909,-3.349172964,0.484016534,2.269855902,-2.753872436,1288.049335,1287.6480841191162,2563.651599985048,82.04079068422773,85.8321849,237.14517948746513
1.174762689717126,-2.115325346,-3.290160132,0.470281328,2.232461411,-2.702742739,1288.307072860539,1287.7191291374813,2563.2927694612213,79.29804044804817,83.29252967277704,234.53574999970405
1.1916072077316378,-2.088550521,-3.280244616,0.448471657,2.235925912,-2.684397569,1288.5057536949898,1287.8513315071755,2563.511718082116,78.30726627202765,82.23950325898468,233.49205922063967
1.233356058552233,-2.062862677,-3.296252452,0.414753309,2.264804255,-2.679557565,1288.0353992988516,1287.4650137183078,2563.9013531378355,78.21969339583035,81.97039294195555,233.22662056127146
1.2435457926729057,-2.021293652,-3.26486545,0.38887393,2.254205621,-2.643079551,1288.308921913289,1287.6358203632747,2563.6381280928335,77.40010826,81.03934481350795,232.39458809045377
1.2450868795668455,-2.020115963,-3.265294455,0.387514542,2.255190667,-2.642705209,1288.3022987098245,1287.9435284923275,2563.2292588573514,77.47278868,81.07271657972312,232.40008355836108
1.2523127878947202,-2.041274791,-3.293679546,0.394481001,2.272996167,-2.667477168,1288.264063639541,1287.458997452979,2563.8850169986267,78.24986975846765,81.85293866086977,233.0486043263031
1.1710920906582012,-2.082193592,-3.25334677,0.455550751,2.21221943,-2.667770181,1288.469916628944,1287.4160422059308,2563.5387218421674,80.94375609934103,84.55614372745454,235.64917463736018
1.114153214486211,-2.101188837,-3.215380495,0.493517811,2.164766855,-2.658284666,1287.786323991682,1287.859006812842,2563.3123247516232,82.10237225836937,85.87417788384326,236.84449530967083
1.1470785931624912,-2.086767287,-3.233905442,0.469844347,2.190492017,-2.660336364,1287.9381745449346,1287.8262230569983,2563.493853552258,80.11909307272717,84.08387282190242,235.02644806437218
1.167697838039221,-2.060885423,-3.228675181,0.446593793,2.19818651,-2.644780302,1288.3030403052658,1287.277694483246,2563.3625451895746,78.36035932692062,82.25234012234705,233.33270106057728
1.1885640493991816,-2.045466439,-3.234107475,0.428451195,2.211335762,-2.639786957,1288.1935594596605,1287.530685463054,2563.5296290910424,77.57915863657827,81.22416471978296,232.5571202493857
1.2036805349930881,-2.028430965,-3.232213434,0.412375215,2.217946985,-2.630322199,1287.9127565854421,1287.811423161997,2563.5181408158255,77.53034476459693,81.00663295678822,232.47009391274403
1.2019231459362618,-2.024627714,-3.226660979,0.411352284,2.214292062,-2.625644346,1288.0612912741528,1287.3433932222374,2563.563346221526,77.52679182329659,80.91288732893655,232.50050332048653
1.1711338505921114,-2.048751988,-3.219941913,0.438809069,2.195537882,-2.63434695,1288.1187238446169,1287.3283700154232,2563.796963337107,78.13140020272354,81.33606159887398,233.07676956335771
1.1618919407689774,-2.073998849,-3.235957843,0.456053454,2.198924892,-2.654978346,1287.9881064412655,1287.5300871051231,2563.567493568131,79.86376444990319,82.98420841211963,234.5949815391552
1.1441084166815363,-2.109740362,-3.253946713,0.482815973,2.199027565,-2.681843538,1288.233923937853,1287.6076965024895,2563.607029193803,81.81760755932906,85.11064273937768,236.51730251655326
1.1196721653320039,-2.102765246,-3.222518034,0.49154654,2.171095099,-2.66264164,1288.3909551830943,1287.9658926597192,2563.6208656938725,81.22133186358363,84.73853237437183,236.1304341738503
1.1258708331859602,-2.058539162,-3.184457787,0.466334165,2.15516431,-2.621498475,1287.8987626312057,1287.541767565537,2563.3444816885535,78.78948852392764,82.4077754,233.81135499646592
1.1372067394087813,-2.069205557,-3.206462765,0.465999409,2.171834752,-2.637834161,1287.6778306008998,1287.5032156025275,2563.4248603986084,77.61586094511698,81.19996132615695,232.52193101671182
1.1933715242032303,-2.102891343,-3.296355324,0.454759909,2.244863424,-2.699623333,1288.1055365568225,1288.0311090297118,2563.0178205438483,77.61380439194971,81.20863852820386,232.34872498459345
1.2053800026892605,-2.116004885,-3.321474907,0.455312441,2.263427455,-2.718739896,1288.476822807915,1287.8416393591394,2563.324063417127,77.47932298,81.10655482988388,232.20173120127833
1.1870814684716258,-2.14583453,-3.332986284,0.479376531,2.260033876,-2.739410407,1288.2790707979657,1287.9227210350632,2564.182461986141,77.75241180850401,81.27058829067599,232.459625
1.2143638141078836,-2.175738449,-3.390192955,0.480687318,2.302278385,-2.782965702,1287.7904209911349,1287.9090811216042,2563.4270315604817,79.32027028,82.73424532939787,233.94660681028225
1.2225876767089774,-2.206775038,-3.429451044,0.492093681,2.32601936,-2.818113041,1287.756893168686,1287.7877729129887,2563.4324867133723,81.59743283753116,85.03537652179146,236.1646260028714
1.1795488104154013,-2.233264445,-3.412884095,0.526857817,2.296216453,-2.82307427,1288.3315347314372,1288.1598526745677,2563.365273940277,81.31539992398636,84.98970602529126,235.93323419793833
1.1698944145344792,-2.234054601,-3.404039397,0.532080093,2.286966906,-2.819046999,1288.388760233231,1288.0080578731765,2563.2978946085705,79.44449693251784,83.27867944998857,234.1969974668504
1.1964517813919855,-2.214564587,-3.411095645,0.509056403,2.303773713,-2.812830116,1288.400280305383,1287.4226525199667,2563.937082839431,78.29253411431952,82.04916384549189,233.0530310529087
1.1725369669905026,-2.224542124,-3.397151607,0.526002578,2.284844287,-2.810846865,1288.4037941631889,1287.6366012815633,2563.602821984823,77.41435436389706,81.00864829872172,232.11634067752092
1.1598424691987899,-2.262490543,-3.422392331,0.551324037,2.2911174,-2.842441437,1287.9324486327396,1287.7201225394758,2562.9745686768583,77.52346200033907,80.90423939787213,232.1449900343571
1.1777416840263029,-2.269030502,-3.446833394,0.545644409,2.312287539,-2.857931948,1287.8888256017713,1287.328919930036,2563.29878,77.87952223483741,81.18120881247008,232.4509629394073
1.1984867532098178,-2.27622697,-3.474770173,0.538870108,2.336628463,-2.875498571,1288.112317065065,1287.7603881506375,2563.656155396006,78.39494134394654,81.72913777267873,232.96487113849517
1.190862508598735,-2.349866263,-3.540770385,0.579501877,2.365816447,-2.945318324,1288.382775,1287.7917897304983,2563.690779455833,80.71157341100569,84.08875261486665,235.20618806000567
1.1750758384453617,-2.380357631,-3.555487688,0.602640896,2.365281763,-2.96792266,1287.9165430213438,1287.4098733045362,2563.5544583198707,81.98249005946373,85.53693520543693,236.4842530598364
1.2102784122687535,-2.354831009,-3.565159464,0.572276299,2.387718938,-2.959995237,1287.6879897581057,1287.5786111539546,2563.4027229965623,80.33833004458056,84.012591,234.97146305939285
1.2331163078138725,-2.346310521,-3.57949033,0.556597107,2.406303319,-2.962900425,1288.1761792445602,1287.885273067936,2563.6068116054016,78.43552107690091,82.00896855936445,233.1338272685666
1.236251702742947,-2.336597954,-3.572951886,0.550173126,2.404601795,-2.95477492,1288.3377063164514,1287.4717228467146,2563.7256159463086,77.51271055528406,80.91927851492618,232.23987894555805
1.2470344485322458,-2.378098496,-3.625209387,0.565532024,2.436121918,-3.001653941,1287.8822445233889,1287.6005401030804,2563.5011192425786,77.42160093,80.62072485326973,232.1624738704536
1.2779175849708793,-2.411023938,-3.688984036,0.566553177,2.48345081,-3.050003987,1287.8166263578817,1287.8064759838971,2563.542284738475,77.46654105580414,80.49475514083784,232.1517087940378
1.3135616615558836,-2.392959647,-3.706583466,0.539698993,2.510072564,-3.049771556,1288.256912666629,1287.3820288582153,2563.5601904269793,78.58812909334921,81.68583641238597,233.18772782546844
1.350059994924827,-2.374893964,-3.725069279,0.512416985,2.537564637,-3.049981621,1288.2533128223222,1287.5299134532545,2563.5695416468716,80.32164039590012,83.60487554498253,234.89645382026401
1.3161442756270734,-2.419294905,-3.735544982,0.551575315,2.525844629,-3.077419944,1288.1436651098522,1287.7918513783764,2563.5796050807157,81.87184378738101,85.27448625860646,236.53831209524145
1.226745540328399,-2.449246733,-3.676055889,0.611250596,2.451400714,-3.062651311,1288.5370510266878,1287.754340083848,2563.824400037014,81.13596072041638,84.65605024950285,235.94813877936704
1.257245595426807,-2.401260202,-3.658571017,0.572007303,2.457908306,-3.029915609,1288.3834212554502,1287.810937204306,2564.032832134402,78.45261932,82.10464632468499,233.46379175169488
1.2895831553882562,-2.393342957,-3.682995971,0.551879901,2.486289563,-3.038169464,1288.135216760613,1287.8165888426697,2563.5834399537393,77.52351873260073,81.17994892912859,232.64474257539214
1.2909212727920014,-2.396502918,-3.687505291,0.552790823,2.489213282,-3.042004105,1288.5396109441815,1287.6619916034124,2563.3874169608116,77.60885091159612,81.18613517142803,232.69346007432242
1.3091408490266636,-2.373398659,-3.682631996,0.532128905,2.495886422,-3.028015327,1288.1961008775422,1287.7843017777122,2563.466226489302,77.41950457875349,81.03823766469505,232.47263562898684
1.305421835896106,-2.399650794,-3.705117618,0.547114479,2.505269727,-3.052384206,1288.0035298408689,1287.8228323207575,2563.568440294016,77.95002555340257,81.66106383,232.9678509057269
1.306383826507854,-2.447190907,-3.753610918,0.57040354,2.529997372,-3.100400913,1288.234682835139,1287.758274717159,2563.947024096748,79.21773960408783,82.90082535309439,234.13497292314872
1.2857433105354514,-2.458263544,-3.744073844,0.586260117,2.514908577,-3.101168694,1288.2740434000343,1287.9821342350647,2563.7315730692144,81.22927067463503,84.95804598263332,236.05963531221158
1.2734230880052528,-2.445210347,-3.718726083,0.58589363,2.496074586,-3.081968215,1288.5526930295448,1287.8835511710079,2563.660384681901,81.30854735214572,85.23135921849848,236.13238074764726
1.2920067145342222,-2.428486801,-3.720577791,0.568240043,2.506292253,-3.074532296,1288.4869776269268,1287.765717,2563.3779607488577,79.34584111524417,83.35207414336443,234.16157301710922
1.3183467023543192,-2.427154906,-3.74559818,0.554404102,2.531972441,-3.086376543,1288.152803900435,1287.5938852099123,2563.391172660916,78.07772373217564,82.04410966714494,232.84806255021851
1.328839424483573,-2.407497047,-3.736410131,0.539328811,2.532624778,-3.071953589,1288.1106662009286,1287.4505206568992,2564.0638882822113,77.38673035389544,81.31141481981125,232.11697043880136
1.3183777774802905,-2.39519768,-3.713619697,0.538409951,2.515998737,-3.054408689,1288.4766726126572,1287.3061974844393,2563.6088688274817,77.41082143276924,81.31790991308645,232.1273476422085
1.3258023853045457,-2.420135437,-3.745992032,0.547166526,2.535897209,-3.083063735,1288.277691248085,1287.561071899799,2563.3751662485274,77.88818258,81.79320649858649,232.62702159898768
1.3382073956108762,-2.447260887,-3.785539709,0.554526746,2.561873552,-3.116400298,1287.9422248977075,1287.6250092219768,2563.5282686897026,78.39552130893873,82.33282038603957,233.14263909668517
1.3309908684242966,-2.479504087,-3.810584551,0.574256609,2.57078771,-3.145044319,1287.9171796733665,1287.5236907863577,2563.8943005105757,80.73587142890793,84.72932809034857,235.4183106257444
1.2984193948495006,-2.480333547,-3.778822801,0.590957076,2.538621098,-3.129578174,1287.9738178453492,1287.6646004373415,2563.6770912468396,82.19014926281098,86.39365451,237.00343593815663
1.2856988993982428,-2.460990754,-3.746761729,0.587645927,2.516230314,-3.103876241,1287.9295758270803,1287.4908852816734,2563.409601932722,80.27581795433561,84.76668444415209,235.44298706074625
1.3440895776259099,-2.436306856,-3.780449802,0.546108639,2.56226969,-3.108378329,1288.1687649849084,1287.4344731934978,2563.739961670797,78.34622555623363,82.90051176899348,233.7140579111698
1.3750798233097954,-2.425293322,-3.800436496,0.525106749,2.587758159,-3.112864909,1288.093013045451,1287.745117,2563.7195732729715,77.55910579062243,81.98230773444594,232.89519164826538
1.3497409419144704,-2.448839585,-3.798664418,0.549549322,2.57420268,-3.123752002,1287.9719772607996,1287.3813545885278,2563.5146033745477,77.49271431095507,81.67289960951862,232.7088912401201
1.3643933921344702,-2.442042386,-3.80653642,0.538824497,2.585464906,-3.124289403,1288.2800533243167,1287.830116,2563.724567266502,77.26580484,81.24636369394034,232.47172814784332
1.3583922791361092,-2.417428401,-3.775928244,0.529518061,2.567160262,-3.096678323,1288.439381582817,1288.1514696932497,2563.695477871643,77.76549909,81.68485756408948,233.00461869224625
1.3075812700474663,-2.454209187,-3.761901586,0.573313958,2.534741428,-3.108055386,1288.0556705338315,1287.7373385189082,2563.4775404765346,80.24038467904496,84.15383559541844,235.39199543110075
1.2793238140259708,-2.471645671,-3.751077023,0.596160929,2.515200419,-3.111361347,1287.859401243392,1287.4962797379621,2563.5441793471364,82.84923181736505,86.84219862169869,237.95150200808754
1.287730821553951,-2.4094636,-3.697274438,0.560866389,2.49250263,-3.053369019,1288.103946557565,1287.3254520794367,2563.430444349332,81.66515812738727,85.94266447202331,236.94019735862364
1.3133423248333673,-2.372178573,-3.685593904,0.529418124,2.499468114,-3.028886238,1288.1277830905392,1287.758904878667,2563.793418816837,79.05366166977633,83.45816285575833,234.49077421858118
1.3473237950593948,-2.422587004,-3.769971206,0.537631604,2.558647501,-3.096279105,1287.8536319368459,1287.909299975213,2563.826965813661,78.02168582842518,82.27601119231757,233.41596046994792
1.3914551365387369,-2.426032416,-3.81755606,0.51728864,2.604505598,-3.121794238,1288.2202492191502,1287.8567996575916,2563.570174401379,77.79358456999609,81.90361382470759,233.12440122011495
1.3844134822431178,-2.413631648,-3.798107735,0.514609083,2.591260609,-3.105869691,1288.408872491689,1287.4864071044667,2563.9641355086333,77.46166219708793,81.48201648308824,232.81037226686854
1.338181654006132,-2.44361554,-3.781859,0.552716943,2.560020327,-3.11273727,1288.0600699241459,1287.605416873212,2563.7560813373316,78.05726622119661,81.98473276780594,233.3764667568644
1.325572187358133,-2.436484009,-3.762121062,0.555455911,2.543846624,-3.099302535,1287.7571606475497,1287.8118040272607,2563.4466721717536,79.36911319,83.32558704285182,234.6124708335675
1.3148400389680603,-2.48229195,-3.797198291,0.583725956,2.556019165,-3.139745121,1287.9276650194934,1287.6295874372188,2563.6105055780163,81.73313273754668,85.72640161125106,236.9059391
1.289559307936693,-2.482781776,-3.772433897,0.596611234,2.530996603,-3.127607837,1288.0269162341667,1287.319772242943,2563.5373313795376,82.08335570241559,86.18873664382664,237.3367836
1.3310268661828677,-2.424541948,-3.755652182,0.546757541,2.543339524,-3.090097065,1288.0252030205088,1287.6468442256548,2563.6680359432594,79.96290383726532,84.36720519619834,235.48130349315585
1.3725182229577109,-2.40638249,-3.77896521,0.516932134,2.575741717,-3.09267385,1288.1703120100842,1287.6547725817775,2563.4287627760777,78.03187674525421,82.67776902526613,233.7864589548108
1.3646644369703842,-2.390585026,-3.755328144,0.512960295,2.559996291,-3.072956585,1288.2349006595891,1287.740938820505,2563.3524688081147,77.42145872270535,82.09049784497134,233.2114841014045
1.3415375342740643,-2.375502442,-3.717144364,0.516982454,2.529340949,-3.046323403,1288.3405687877312,1288.1068477724534,2563.776316782104,77.59271603705196,82.21207424376807,233.32260532803258
1.3267647293275058,-2.432462182,-3.759317451,0.552848726,2.54304109,-3.095889816,1287.829872274256,1287.5569966773219,2563.6786303276376,77.71539309934423,82.34474350153307,233.49163427137722
1.300716783,-2.468128609,-3.768940902,0.583705913,2.534828843,-3.118534755,1287.9013988302622,1287.4797879066912,2563.328088858248,78.06450982607646,82.73976988276773,233.95994621697815
1.2834562865338943,-2.471652549,-3.755198072,0.594098131,2.519327179,-3.11342531,1287.9819473701848,1287.5363424984985,2563.3693057209125,80.42281332290666,85.06818715327077,236.3999070656622
1.304408011291314,-2.463539756,-3.767991784,0.579565872,2.536199898,-3.11576577,1287.9745138418932,1287.4266230936992,2563.598710851324,82.06533176,86.71868694278275,238.24212673857193
1.334449934122272,-2.423254972,-3.757778914,0.544402519,2.546114424,-3.090516943,1288.1693952662233,1287.8740607114864,2563.478561570002,80.10617032553792,84.85717018310002,236.60303195499625
1.3456580490593726,-2.415427307,-3.761197795,0.534884629,2.553427922,-3.088312551,1288.1889068883513,1287.9577706551127,2563.493284382194,78.28878296359972,83.06020446841725,234.94507517495757
1.3434109965128866,-2.431191013,-3.77468752,0.543890008,2.559049258,-3.102939266,1288.5965803348238,1287.765961,2563.5043675065867,77.98278441332133,82.58286239216581,234.69193289137672
1.3767341292899693,-2.412038166,-3.788860551,0.517652018,2.58279734,-3.100449358,1288.636029987556,1287.656862873762,2563.8370292050354,77.22151895774469,81.57055494,233.95712315640316
1.379485327840012,-2.404199195,-3.783775778,0.512356934,2.581630553,-3.093987487,1288.6573880596566,1287.6516055043373,2563.766345381884,77.41106836710925,81.62489928,234.13072928972196
1.3404328030434602,-2.427865041,-3.76836687,0.543716119,2.554399836,-3.098115955,1288.436755933053,1287.6123993818621,2563.382252275927,78.09222741681062,82.33270554018081,234.82061472398257
1.338742675538968,-2.485918168,-3.824742523,0.573587746,2.581742599,-3.155330345,1288.4421476044747,1287.4775009696114,2563.3089753257073,79.69983033557057,83.94304864424171,236.41928872969393
1.3276683021932507,-2.513712748,-3.841438199,0.593022223,2.58455325,-3.177575473,1288.3554574218438,1287.7101526624501,2564.009371,81.91784437975885,86.18400908320535,238.68691959254514
1.3218825922545205,-2.456652824,-3.778571982,0.567385116,2.550227287,-3.117612403,1288.276196413363,1287.783614590502,2563.744493966415,81.06753023276676,85.40524723081363,238.00980871380386
1.3362325634415495,-2.398076493,-3.734399402,0.530921965,2.535315983,-3.066237948,1288.3104483565498,1287.8750321969364,2563.6018359747804,79.01752614756393,83.38394428261279,236.03286581370463
1.355828959491109,-2.387257054,-3.743184459,0.515714047,2.549506709,-3.065220756,1287.7322699498686,1287.2949836416121,2563.8737326033306,78.05808959,82.37206387989062,234.9999054
1.3773368778552224,-2.383384756,-3.760793147,0.503023939,2.569065012,-3.072088951,1288.1675296197038,1287.3631229437472,2563.7437025889976,77.28374465741341,81.47650040955061,234.20493627999153
1.3736783670288757,-2.395901145,-3.76968193,0.511111389,2.571680148,-3.082791537,1288.6315355755848,1287.6536430410524,2563.892481,77.13465291197215,81.18388642376276,234.09063089677102
1.351896630870771,-2.422650843,-3.774632817,0.535377106,2.563264724,-3.09864183,1288.1145141702634,1287.6873676604337,2563.7002146108707,77.79642553764914,81.82113844632991,234.75881110224518
1.3055674467519478,-2.460174053,-3.76579305,0.577303303,2.535680248,-3.112983552,1287.8011332049684,1287.8611765536118,2563.235167681434,79.08108549052727,83.21245808141384,236.03187156341656
1.2880377757724064,-2.468987107,-3.757122534,0.590474666,2.522580155,-3.113054821,1288.0357935982215,1287.3580064632524,2563.299124054219,81.40198363869489,85.70093301321992,238.38683832955869
1.306554618044233,-2.450634298,-3.757296088,0.57203984,2.531925353,-3.103965193,1288.0391514595879,1287.3815789983262,2563.6018846635175,81.57090589682687,86.06314843326844,238.81117306426398
1.3192456027912045,-2.436243094,-3.755589188,0.558498745,2.537417395,-3.095916141,1288.2507328452125,1287.7247968185375,2563.6445420338614,79.21700847886804,83.82076164442184,236.7406734725144
1.3617554928511073,-2.406432411,-3.768312174,0.522338459,2.565033834,-3.087372293,1288.4990471963229,1287.8661404591098,2563.620562324592,77.37256886779612,81.82945223080306,234.96904807284443
1.3500730104317473,-2.407524039,-3.757704819,0.528725514,2.553888915,-3.082614429,1288.0062836232873,1287.6829263820232,2563.411998885235,76.95277607,81.14514028100497,234.5526702197688
1.314168007065862,-2.420698759,-3.734959916,0.553265376,2.524563962,-3.077829338,1287.6738216745318,1287.3739144620888,2563.570454748606,77.13465747995929,81.15735068661003,234.69649029053548
1.3444392908875966,-2.41721641,-3.761737519,0.53638856,2.553088405,-3.089476965,1288.0936949376357,1287.3289104644102,2563.722492980627,77.54343590046264,81.43121040407274,235.0176787414104
1.3325513353155876,-2.422119922,-3.75474685,0.544784294,2.543649093,-3.088433386,1288.4672567134555,1287.2717736167342,2563.4869829316945,78.25817104639489,82.07083019007116,235.62762253634747
1.3228272754556227,-2.457763593,-3.780667231,0.567468159,2.551747253,-3.119215412,1288.3202166460496,1287.4943374545103,2563.6904552175943,80.48069287374771,84.32117470350336,237.72599781456654
1.356235265732594,-2.477481379,-3.833821984,0.560623057,2.595028625,-3.155651681,1288.1968705291924,1287.656840369924,2563.773360358545,81.90960499,85.89491057857381,239.1766490628701
1.389602394533353,-2.431864063,-3.821554559,0.521130834,2.605578477,-3.126709311,1287.8258124581282,1287.703486490756,2563.390501973738,80.28012455194792,84.36446820051665,237.6560943284944
1.3768935671787172,-2.410280637,-3.787249203,0.516693535,2.582071385,-3.09876492,1287.9305480454466,1287.6448969371613,2563.6398365185114,78.24683905237617,82.29113926,235.6714134470177
1.2930669094743366,-2.438536767,-3.731713218,0.572734929,2.512390064,-3.085124993,1288.1902721019958,1287.8326078433274,2563.983630049857,77.42751639874346,81.35066883601642,234.7674609918814
1.266038568786581,-2.438948444,-3.70507607,0.586454938,2.48555732,-3.072012257,1288.2693483343571,1287.6410516009212,2563.8020684776084,77.37426856,81.14338134514036,234.52690614644203
1.3136793933867452,-2.422371411,-3.736119553,0.554346009,2.524899473,-3.079245482,1288.1830820480907,1287.3999012021093,2563.6872618285906,77.46151162585264,81.14774315555835,234.4535406971416
1.3205011201864347,-2.440929092,-3.761512148,0.560213986,2.541006634,-3.10122062,1287.7439809952962,1287.4667417785263,2563.240099,78.01177075626988,81.69292215396189,234.86680664282463
1.3317442664766574,-2.476463042,-3.808287416,0.572359388,2.570015841,-3.142375229,1288.0631443529378,1287.3815096782664,2563.131526663863,79.80562234685014,83.53394726830705,236.4787324851019
1.3422606708113067,-2.498738087,-3.841104548,0.578238708,2.591682609,-3.169921317,1288.559304799152,1287.4547701648519,2563.4109609688226,81.82480469079988,85.71168680946785,238.3948734391261
1.3342514922504496,-2.460699275,-3.795038925,0.563223891,2.564645208,-3.1278691,1288.2417545179226,1287.5065317187398,2563.7228026332705,81.46797210106055,85.57691602,238.09521926500733
1.3256244170211962,-2.420433165,-3.746127341,0.547404374,2.535875879,-3.083280253,1287.737073496568,1287.2819710088615,2563.8437397181174,78.51530782918054,82.78342857,235.26097159635705
1.3137595203114207,-2.409705766,-3.723531036,0.547973123,2.518645278,-3.066618401,1287.8459367042515,1287.2251555732396,2563.6362414173323,76.71841483794707,80.94534470176028,233.57140800960053
1.2963461362453272,-2.397503101,-3.693915097,0.550578482,2.495130617,-3.045709099,1288.4628402069986,1287.3577308275992,2563.5452738528966,77.67673609385095,81.66059504321785,234.4429304553074
1.3136473209225659,-2.361134816,-3.6748684,0.523743748,2.494257861,-3.018001608,1288.5659404662642,1287.4279815187858,2563.360664807236,77.19489788707266,81.04945898663098,233.8856343
1.3451964041089624,-2.407853111,-3.753134069,0.531328354,2.549165236,-3.08049359,1288.4995675109874,1287.419631194403,2563.6345567514604,77.25099664363552,81.13572294123931,234.00819673547147
1.3240043553868253,-2.495100919,-3.819157656,0.585548282,2.571581006,-3.157129287,1288.2117513510289,1287.5304444768792,2563.7261984791708,79.04962107403254,82.99885833072278,235.8836685074434
1.3067744295539707,-2.516808324,-3.823653704,0.605016947,2.565214067,-3.170231014,1288.0437099145136,1287.659734500332,2563.1697861571424,81.25422560639859,85.32676181428785,238.1362741273118
1.312854633342853,-2.524438831,-3.837381405,0.605792099,2.575118019,-3.180910118,1288.4281595506022,1287.213444085116,2563.043700196434,81.68433904,85.84308970846165,238.68338746299992
1.330736751127926,-2.480816236,-3.811633753,0.575039742,2.571185252,-3.146224994,1288.3054379393136,1287.689585247842,2563.3102048136884,79.52677481197189,83.65450399637677,236.73099732107576
1.3255882680710471,-2.444164316,-3.769845252,0.559288024,2.54771676,-3.107004784,1288.2563939994639,1287.8966203544387,2563.488597,77.85831780470889,81.86237724893591,235.12813057686395
1.304433561378715,-2.477371643,-3.781919618,0.586469041,2.54317659,-3.129645631,1288.2652713416817,1287.5933265728656,2563.797219658426,77.63445034351689,81.51413671494898,234.76618686497733
1.3189362535770424,-2.419549061,-3.738551299,0.550306404,2.528743776,-3.07905018,1287.6561380068947,1287.803643114051,2564.096382506046,77.09715582572765,80.98614372727643,234.14679911733288
1.3755287611843976,-2.390291431,-3.765891308,0.507381335,2.570710035,-3.07809137,1287.9827391970205,1287.6877171825915,2563.587593286861,77.58218910396386,81.45848151338323,234.55754966372055
1.4094763355686861,-2.424118069,-3.833685322,0.507320867,2.621580829,-3.128901696,1288.5409179696956,1287.5689809859418,2563.377584534058,78.48206844626063,82.30056726879714,235.28466080232226
1.348012528307441,-2.460904975,-3.808993243,0.556446224,2.578502886,-3.134949109,1288.274381488383,1287.926638598801,2563.3307144696855,80.61750900413486,84.56894952700483,237.28911223666694
1.3066987371340153,-2.490503388,-3.797310491,0.591902326,2.552004614,-3.143906939,1287.7913751172396,1287.5237188152246,2563.479593427394,82.09347668,86.38581910169614,238.86858516404078
1.3139366143460305,-2.464392927,-3.778411018,0.575228156,2.546173816,-3.121401973,1288.0491213146051,1287.5045763107903,2563.741047802521,79.98780147726012,84.58144099279545,237.01417142102682
1.3298507251625185,-2.440402642,-3.770321107,0.555275959,2.550085916,-3.105361874,1288.2285051607985,1287.9761573791166,2563.235684,78.15432398372602,82.82174266707983,235.34219350834744
1.3291459648452748,-2.442073869,-3.771308077,0.556463952,2.550227021,-3.106690973,1288.4410847551658,1287.7322492684434,2563.123425,77.55779476,82.10140699091436,234.77585134552552
1.327186683130692,-2.43841032,-3.765679782,0.555611818,2.546433233,-3.102045051,1288.6511468369938,1287.573650770181,2563.864454983572,77.22420816138225,81.63440872598628,234.4219246209091
1.3399106669859433,-2.425299513,-3.765249396,0.542694423,2.552580031,-3.095274454,1288.243681832388,1287.4524502396612,2563.771840307476,77.76332029661444,82.07364169354814,234.8774589967989
1.330393675706323,-2.449015036,-3.779457383,0.55931068,2.554925529,-3.11423621,1288.3381401966378,1287.3558464417758,2563.9065175749665,78.47345052469451,82.75131327277634,235.51645889172718
1.333139273704058,-2.509990325,-3.84321061,0.588425525,2.588174942,-3.176600467,1288.2644328807305,1287.8031497904626,2564.102608234349,79.91511078961923,84.17114654555577,236.8716057587035
1.3110253428027734,-2.544050884,-3.855165579,0.616512771,2.583095461,-3.199608231,1288.2870450491896,1287.9750015764662,2563.5599134636036,82.46911340853055,86.75693162214581,239.2784205203754
1.300340596,-2.458949588,-3.759364036,0.579304496,2.529852316,-3.109156812,1288.226009554561,1287.3683552151758,2563.488027,81.10388425207859,85.51375039064914,237.94982086353426
1.335173006326572,-2.417675356,-3.752921629,0.541251175,2.544047317,-3.085298492,1287.9912547385186,1287.7898587190107,2563.3643974659417,78.38468970599017,82.80428694,235.34543753451078
1.3335315335498972,-2.446400017,-3.780019911,0.556434242,2.556775722,-3.113209964,1288.307470228958,1287.9942749258064,2563.1472277409407,77.04365111371779,81.36484704799884,234.04775010510653
1.307881136568866,-2.436041499,-3.743996543,0.564080181,2.52593884,-3.090019021,1288.5798383388062,1287.8171245158144,2563.2295055022523,77.11125881981665,81.25705196322218,234.10206488468688
1.328603731354231,-2.417834983,-3.746506847,0.544615626,2.537555289,-3.082170915,1288.3155691090853,1287.7286218562494,2563.425000609463,77.17307113043358,81.17834458936784,234.19860776970407
1.341834021301855,-2.456967909,-3.798872604,0.557566944,2.570353312,-3.127920256,1287.9302730570098,1287.5470033872366,2563.5976738303834,78.03992776,82.04719497627478,235.0562769583867
1.3199214135400643,-2.496920274,-3.816913308,0.58849943,2.568417361,-3.156916791,1288.304279,1287.5829125470163,2563.384400349698,79.53572269344718,83.57493484336149,236.50827540183752
1.2798478105953524,-2.516233974,-3.796141399,0.618193082,2.537994605,-3.156187687,1288.0597292911748,1287.7150124839363,2563.334509539472,81.32460936074665,85.38442693824327,238.3381416373967
1.2891988440467195,-2.495771055,-3.785019627,0.603286105,2.537109236,-3.140395341,1288.1665347229296,1287.5908102456203,2563.4773140529514,81.42568199392142,85.56611911800472,238.55207827239886
1.3332409996219285,-2.453650547,-3.786983001,0.560204774,2.560112,-3.120316774,1288.3280735739972,1287.5508941620278,2563.4215063366914,79.36735413689286,83.54615937,236.65023404929659
1.3280435247182911,-2.429785621,-3.757939004,0.550871048,2.542991264,-3.093862312,1288.1177374776507,1287.8495249761245,2563.591272395206,77.73482625711338,81.77998626075706,235.07584378865153
1.3238454281251477,-2.442784271,-3.766751085,0.559469422,2.545298257,-3.104767678,1288.4271260167868,1287.988267588132,2563.6426196333687,77.37493436,81.28965385524712,234.67750977734892
1.3244962724103073,-2.466174094,-3.790771195,0.570838911,2.557633734,-3.128472645,1288.5004831332305,1287.592348228102,2563.430984876872,77.25395156,81.11134027507251,234.48749004863288
1.345279418515215,-2.469392734,-3.814713624,0.562056658,2.579996521,-3.142053179,1288.4838762454324,1287.724797343499,2563.694150422331,77.48850629164285,81.29432927418362,234.67205886170842
1.3623334744521562,-2.488790113,-3.851189492,0.563228319,2.606761483,-3.169989803,1288.0964416495406,1287.715675788561,2563.5272488524133,78.59522654506821,82.34891580415079,235.61980704520002
1.3427393432939074,-2.53560127,-3.878409462,0.596430963,2.610574403,-3.207005366,1287.962324059119,1287.8280357534393,2563.3552596199684,80.47570754354092,84.19448267047814,237.18267557706056
1.2813270211231835,-2.538515698,-3.819902892,0.628594339,2.550614956,-3.179209295,1288.2708779598074,1287.9426941450306,2563.3678621979607,81.16088240071126,84.96236230470919,237.69963100602132
1.3171948611760451,-2.494895391,-3.812182523,0.588850265,2.564688692,-3.153538957,1287.9091790406476,1287.8738751097255,2563.3614318963023,79.60774823979303,83.50052230527747,236.1629052038543
1.3820018112076529,-2.442735409,-3.824823731,0.530366799,2.603412771,-3.13377957,1288.2117396835959,1287.7120178191099,2563.576489609082,77.97546636923067,81.90057378253007,234.4501077760874
1.360796568,-2.392545619,-3.753391193,0.515874526,2.55709388,-3.072968406,1288.6326313335464,1287.2265046062932,2563.404909076116,77.27120571773311,81.18596745074206,233.6558958967623
1.3488427892301835,-2.370556461,-3.719457767,0.510856836,2.534150278,-3.045007114,1288.112731544994,1287.5833878817436,2563.361197,77.00767107967444,80.92622061634643,233.36978084625923
1.340153578485519,-2.447646312,-3.787911285,0.553746367,2.564032432,-3.117778799,1287.8635544731146,1288.2213890477622,2563.4716995372305,77.33359414831365,81.28644479,233.6478352730679
1.323247875888265,-2.499881986,-3.823199198,0.588317055,2.573223537,-3.161540592,1288.2396376535849,1287.7106514570144,2563.6325664532897,77.92943048753399,81.89662527459042,234.16933647699773
1.2981297368014058,-2.513677693,-3.811845462,0.607773978,2.554987599,-3.162761578,1288.0927067495609,1287.2490325915608,2563.529758666516,79.75018440362997,83.75885173306277,235.86462634621083
1.2936454227495262,-2.544015768,-3.837754626,0.625185172,2.565700024,-3.190885197,1287.9850246387507,1287.5402265504817,2563.615291963923,82.19525364,86.30781955626892,238.26363015844194
1.3116705776175945,-2.516363423,-3.828124375,0.602346422,2.569897476,-3.172243899,1288.1011919970615,1287.7311268272972,2563.477224013589,81.11230703,85.42509672169804,237.21415984757317
1.337462756647249,-2.485382998,-3.822932712,0.573960121,2.580197734,-3.154157855,1288.1389094500767,1287.312144029062,2563.4939318698853,78.40029586,82.83225942441311,234.51564995754578
1.356978838189037,-2.464882149,-3.821951176,0.553951655,2.589465007,-3.143416663,1288.1163510322551,1287.2597888121163,2563.8607061443913,77.26593255235628,81.63335020466805,233.43511867237314
1.3217250653540833,-2.448818413,-3.770593221,0.563546674,2.546159143,-3.109705817,1288.1746720804144,1288.0504308316654,2563.7866939147593,77.23074427208084,81.36041084423194,233.27844985809014
1.3213187933202624,-2.443428053,-3.764827799,0.56105463,2.543073296,-3.104127926,1288.0829829265708,1287.614234239133,2563.745364845679,77.24213876814903,81.15098924640259,233.0741664892356
1.3463341301741512,-2.452334164,-3.798763331,0.553000017,2.57254873,-3.125548747,1288.00197,1287.0643961841686,2563.7879493124133,77.77396313618185,81.59911287331217,233.53457469094684
1.3184056882206947,-2.49158681,-3.810064205,0.586590561,2.564234946,-3.150825507,1288.441916079457,1287.5616061977885,2563.521686,79.00818665550135,82.89577891757133,234.7482017504853
1.2859375339955974,-2.540083221,-3.826068749,0.627072843,2.556003141,-3.183075985,1288.5897759503312,1287.7385754353731,2563.333219,81.08210243494672,85.12252284288812,236.77174317639094
1.2868959351105869,-2.533549816,-3.820494151,0.623326941,2.553695043,-3.177021984,1288.1095756020945,1287.5136563888323,2563.561386,81.55513177834055,85.76676424,237.18298462666513
1.290809631548693,-2.495690832,-3.786597399,0.6024406,2.538703515,-3.141144116,1288.2054593525422,1287.5433400529216,2563.9215550623417,79.23795915760286,83.53515750228729,234.79279729155164
1.2811998358821952,-2.497570326,-3.778851036,0.608185245,2.530025436,-3.138210681,1288.1458876807285,1287.8890735021735,2563.5641953347526,77.47765038,81.75246431823068,233.0751752
1.2793319502467493,-2.507413431,-3.786803742,0.614040741,2.533067846,-3.147108587,1287.9609570120588,1287.9859892141797,2563.5626838516223,77.35576821454242,81.49414705500044,233.01267959562225
1.279633687944533,-2.528440472,-3.808141062,0.624403392,2.543887375,-3.168290767,1287.8949803581238,1287.4645411605904,2563.646606686772,77.20043286590962,81.15770103127109,232.84561442284078
1.2830980186253924,-2.534154618,-3.817316385,0.625528299,2.550207202,-3.175735501,1287.9991332097877,1287.2517943899452,2563.5213428435563,77.83078751743645,81.75452092275057,233.39552763941978
1.2665845625878438,-2.530108692,-3.796766589,0.631762065,2.531675576,-3.163437641,1288.2160985474784,1287.6530947144704,2563.7615223745065,78.75374783095289,82.74400585575569,234.18316547097223
1.262763400805744,-2.552911373,-3.81576092,0.645073986,2.539262161,-3.184336147,1287.9389739651122,1287.7221015760867,2563.7207663364884,80.47532683229922,84.65759253590903,235.86837201228826
1.2750682276522172,-2.578997993,-3.854139656,0.651964883,2.564603942,-3.216568825,1288.0446096415887,1287.634162858861,2563.7992315495376,82.03681993050004,86.54237296,237.51406740101183
1.2884832397339463,-2.562804343,-3.851362143,0.637160552,2.569922691,-3.207083243,1288.2637763948956,1287.6017967720193,2563.878789575078,79.80610101578392,84.51708503629105,235.44414751131873
1.242244761583423,-2.550762439,-3.793084396,0.654258839,2.517664579,-3.171923418,1288.2814495856876,1287.7471110129197,2563.401566475691,77.92785520120279,82.70525808102356,233.63725345129936
1.2171976607271153,-2.555828885,-3.773125369,0.669315612,2.495161515,-3.164477127,1288.1420840344638,1287.5398821236827,2563.487154176622,77.56973366300844,82.26245905818529,233.2205000924302
1.2472733097551774,-2.508410056,-3.755788544,0.630568373,2.501530927,-3.1320993,1287.801463240599,1287.1209271374908,2563.693439557809,77.21218940190501,81.7299763,232.70729305377202
1.2846295512430652,-2.469537648,-3.754259626,0.592454048,2.519444589,-3.111898637,1287.633619129716,1287.329156112987,2563.3149669514446,77.64313912398195,82.10173662,233.00404451995482
1.2679041431738107,-2.495421314,-3.763419887,0.613758585,2.515662015,-3.129420601,1287.9493746445137,1287.4703455462666,2562.7957629549733,78.48002756593331,82.95012028287115,233.73610862092477
1.2287429802973924,-2.550313179,-3.779156129,0.6607851,2.503949555,-3.164734654,1287.991768137022,1287.7941329942046,2563.0951443810113,79.84064088,84.40023378380597,234.95762804360217
1.1582104142481713,-2.611297265,-3.769558184,0.726543425,2.463884299,-3.190427724,1287.9607119745922,1287.6176364120956,2563.7804634349236,81.95966549125134,86.69827399165472,236.98832833407366
1.1033455783439314,-2.577814496,-3.681229449,0.737234459,2.392287514,-3.129521972,1287.7934092372573,1287.518871281949,2563.6137409821094,80.57247554480738,85.47209643,235.60832355521794
1.1452470025598336,-2.515772196,-3.661109151,0.685262597,2.403178077,-3.088440673,1288.0620295573322,1287.941479000743,2563.2452016742113,78.33629976576174,83.25501137508368,233.42780565688093
1.1546884043229158,-2.516463687,-3.671242225,0.680887641,2.412965314,-3.093852956,1288.594258088031,1287.3001204508553,2563.789905179597,77.60638180758029,82.40925752910933,232.85404073174126
1.1260084054769928,-2.530521072,-3.656631444,0.702256333,2.391319925,-3.093576258,1288.1912183319394,1287.0029022033946,2563.700355065461,77.32078812739859,82.03756990025805,232.65527607671217
1.1135403014022487,-2.53307946,-3.64670254,0.709769579,2.380121421,-3.089891,1287.9637171281593,1287.4224251811465,2563.425419185545,77.46878159,82.15041701742477,232.7923931215108
1.1250295906906025,-2.520055975,-3.64515838,0.697513192,2.385093986,-3.082607177,1288.2888076294591,1287.8434916635094,2563.7475969832003,78.04216652445717,82.71807745954294,233.39142703881149
1.1612624474483817,-2.551353138,-3.712678803,0.695045345,2.436970625,-3.13201597,1288.294076952033,1287.9931136570058,2563.9874867743893,79.14490498165368,83.93920304700059,234.4411714161578
1.1911318277254528,-2.595795563,-3.787015235,0.702331868,2.489073531,-3.191405399,1288.505919,1287.6330603823426,2563.678109189745,81.34104281064553,86.24744079966108,236.53380133165385
1.204737576423853,-2.566903986,-3.771735017,0.681083205,2.488236297,-3.169319501,1288.1153078254968,1287.2760763145109,2563.3367217409495,81.42009090238287,86.40778134825939,236.73523537269637
1.2561384915096576,-2.530473536,-3.786688605,0.637167522,2.521413548,-3.15858107,1287.741523546523,1287.6320627968762,2563.4797198037595,79.21746013313941,84.20904581770978,234.74087292320849
1.3149855889520943,-2.477442063,-3.792494392,0.581228237,2.55373999,-3.134968227,1288.0450058034523,1287.7150206362346,2563.559619779855,77.72613146,82.51723599,233.33725936865724
1.2879609291813665,-2.452221113,-3.740221889,0.582130092,2.514091409,-3.096221501,1288.3034882814966,1287.6643261552108,2563.5605997429466,77.46631401475678,81.88690482101258,233.02818577374833
1.2295916421033766,-2.478663018,-3.708317615,0.624535688,2.468954629,-3.093490317,1287.6407019320702,1287.5104956263845,2563.545180565782,77.44682470148345,81.7062643,233.0373611172765
1.1901518149455441,-2.503040922,-3.693277313,0.656444554,2.441714564,-3.098159118,1287.8715371487583,1287.6483603502006,2563.526185966187,77.77022507099662,82.06999931429011,233.4382472990228
1.208561152029159,-2.517017388,-3.725678584,0.654228118,2.467119868,-3.121347986,1288.4164664328669,1287.455836722747,2563.5010352052623,78.36755775121524,82.66901533926281,234.05394555314706
1.2102570438858384,-2.558733069,-3.769062398,0.674238013,2.489659721,-3.163897733,1288.1597326859983,1287.7414203272117,2563.695286873478,80.68288849704169,85.01979841906768,236.35618597858615
1.1744403019442742,-2.572212446,-3.746715329,0.698886072,2.460577815,-3.159463887,1288.4008180791207,1287.971920471877,2563.717157253755,82.12415124709923,86.59272877839437,237.88496766975587
1.198569633782723,-2.523488653,-3.722116814,0.66245951,2.460343224,-3.122802734,1288.517967102815,1287.6780635980401,2563.3579240599815,79.98179237115203,84.64577144444169,235.90462464997282
1.249796767105811,-2.494068187,-3.743914905,0.62213571,2.496855836,-3.118991546,1288.3020898823538,1287.6865528980334,2563.304768913496,78.15292707468033,82.88742339733211,234.12365574990068
1.2786100803691964,-2.498948061,-3.777652177,0.61016899,2.528131129,-3.138300119,1288.1287683665848,1287.7742166483283,2563.5508285788096,77.47132749309424,82.03187904248063,233.4487394125098
1.2931240119554674,-2.496562035,-3.789795267,0.601719011,2.541459639,-3.143178651,1287.9329730838888,1287.7441274236153,2563.685110761448,77.48192257670938,81.83113204492508,233.43628751689081
1.3034110425737049,-2.447698577,-3.751204576,0.572143767,2.527307809,-3.099451577,1288.1104865794657,1287.4022879968818,2563.4364636661444,77.94007982478014,82.30658273961879,233.84898942463732
1.3125762339018192,-2.444427812,-3.757060864,0.565925789,2.534818549,-3.100744338,1287.8999964811492,1287.4093009713579,2563.169112374707,77.89862709702777,82.36909878695415,233.76826770239006
1.2965377998475405,-2.527210156,-3.823796527,0.615336178,2.560167163,-3.175503341,1287.8630896780476,1287.8896049037423,2563.464618462859,79.84845218,84.28647578268115,235.59678593519996
1.2803440793615266,-2.572070617,-3.852464196,0.645863269,2.566404138,-3.212267407,1288.1548770033548,1287.9304187987368,2563.399404577994,82.11896417009963,86.67772229427615,237.7793639521889
1.2915348045133075,-2.531318564,-3.822893134,0.61989188,2.557213969,-3.177105849,1288.0979064228234,1287.7532545650797,2563.5335667084896,80.75485743382447,85.64819615290877,236.5825193514811
1.3230003111625936,-2.470657297,-3.793709574,0.573828493,2.558354943,-3.132183436,1288.6307121975797,1287.6839120107495,2563.432600286172,78.6663856,83.61079081063427,234.62643032956677
1.3506073082301266,-2.457055062,-3.807762636,0.553223877,2.579184972,-3.132408849,1288.4126859349778,1287.6025806673947,2563.6386466138497,77.68151894990432,82.39840643345212,233.62586419283855
1.3548805771880765,-2.477666107,-3.832645494,0.561392765,2.593763036,-3.155155801,1288.0833134013405,1287.7130946790303,2563.546068103415,77.71275303784336,82.23615511741176,233.58225515460762
1.300947077199578,-2.494750119,-3.795786124,0.596901521,2.548366601,-3.145268122,1287.7767820056542,1287.7890296926282,2563.3553087465903,77.78165965406006,82.14897521770223,233.55006345197947
1.294548509061979,-2.479232207,-3.773873521,0.592341849,2.534211015,-3.126552864,1287.9682357593833,1287.4897437045788,2563.396303851259,77.77793741735053,81.97038899851205,233.42610125912032
1.356228478504516,-2.45836611,-3.81466707,0.551068816,2.585447774,-3.13651659,1288.4950207796485,1287.387920646158,2563.777415042223,79.21619546126095,83.32310796768148,234.72519759160778
1.3467266737249204,-2.503370196,-3.850183351,0.578321761,2.598455012,-3.176776773,1288.1473842609332,1287.6204208848692,2564.074976,81.55653123741564,85.71393587918755,237.00596257693408
1.2923435988183376,-2.521665198,-3.814104898,0.6146608,2.553224249,-3.167885048,1287.785592219825,1287.5070186254518,2563.379644,81.73976922724606,86.01649280834981,237.27758555719595
1.3012978818486185,-2.480970437,-3.782326877,0.589836277,2.541812379,-3.131648657,1288.1117387931022,1287.3496653890052,2563.3407983112734,79.39847968333841,83.73016886745165,235.06385504438072
1.3466518461724157,-2.48601618,-3.832742717,0.569682167,2.589697282,-3.159379449,1288.3505700654987,1287.5931638868167,2563.524005477348,77.92376749367692,82.15081113994154,233.58521080286627
1.3607508750596657,-2.461833461,-3.82269954,0.550541293,2.591725207,-3.142266501,1288.2433314934024,1287.8906143700576,2563.7908899838135,77.71236072935689,81.72437947052524,233.2739026611702
1.3605478079776976,-2.415788132,-3.776398171,0.527620162,2.568472989,-3.096093151,1288.2274626868984,1287.8386566925997,2563.8238231684804,77.43185544646721,81.31174570655841,232.9015443790283
1.3334885741120734,-2.427592093,-3.761135274,0.54705176,2.547311924,-3.094363684,1287.9712325800292,1287.6546133363288,2563.781862754132,77.33941113373002,81.14314371146924,232.79561071783175
1.324870260562087,-2.492414718,-3.817403896,0.583772229,2.571137078,-3.154909307,1288.0441372614184,1287.576149904599,2563.755359,78.41273288945709,82.11533036623625,233.8799893703579
1.323047051283257,-2.560043781,-3.883156198,0.618498365,2.603101625,-3.22159999,1288.3450313654857,1287.6932471001646,2563.0089687561413,80.73433424818738,84.47690172411794,236.23228796873119
1.3224808504866536,-2.550462569,-3.87299552,0.613990859,2.597738185,-3.211729045,1288.1680176406182,1287.8599278510671,2562.910176095859,81.76354211,85.85488865,237.37643047553132
1.346713102436848,-2.488047754,-3.834824588,0.570667326,2.590768845,-3.161436171,1288.1176837912226,1287.721268751548,2563.6861893780324,80.08049753154054,84.54721129,235.83514875913372
1.3464686509842088,-2.440859249,-3.787407901,0.547195299,2.566938276,-3.114133575,1288.4070179405394,1287.521519395176,2563.785041004856,78.07892957086669,82.61198755849291,233.99252333414967
1.312052393,-2.435535988,-3.747701971,0.561741798,2.529877182,-3.09161898,1288.0107759687576,1287.7248355749468,2563.4732095308586,77.64381846766562,82.05343504968691,233.54711832773634
1.3272030939966486,-2.459796432,-3.7871088,0.566296669,2.557155947,-3.123452616,1288.0666005620674,1287.977029698317,2563.4480091835767,77.48676455586394,81.77743653784287,233.32217436735843
1.3541487592391381,-2.478447787,-3.832689514,0.562149514,2.593419136,-3.15556865,1288.6221656276841,1287.909663313763,2563.6735776960386,77.52581477558971,81.69364630917684,233.40064073502163
1.3462105295780018,-2.470965786,-3.817252782,0.562377628,2.581731656,-3.144109284,1288.3791289654869,1287.666349236329,2563.925596715067,78.41637228493235,82.50876384301029,234.26686355254657
1.3329815992804963,-2.510760319,-3.843814361,0.58888936,2.58839798,-3.17728734,1288.470854557639,1287.7029115374744,2563.8068041117454,80.26014107430426,84.38434102545361,236.12646013997414
1.3167152036549912,-2.575801272,-3.892583022,0.629543034,2.604649113,-3.234192147,1288.0387742888895,1287.679150294044,2563.565230912251,82.13935141243878,86.41597760135426,238.1609510685326
1.3336565888808705,-2.54027626,-3.873980482,0.603309836,2.603818536,-3.207128371,1287.5625977192012,1287.8215467710609,2563.534299751293,81.16792026,85.58725204459657,237.4451998540932
1.3450176368294877,-2.45941053,-3.804457419,0.557196447,2.574737528,-3.131933975,1287.888614035078,1288.0237134268014,2563.744774689491,78.85616628945125,83.26378546767873,235.25463541969924
1.3598001134788227,-2.421021886,-3.78087522,0.530610886,2.570337667,-3.100948553,1288.0999062836067,1287.7407342894312,2563.7304905890182,77.69037183243651,82.00543909242552,234.01658499525308
1.390313031581416,-2.449557934,-3.839927344,0.529622451,2.615120188,-3.144742639,1288.1794457317555,1287.6771756622104,2563.443153654276,77.42635694840756,81.67851208,233.7083162634262
1.385545085385616,-2.508759222,-3.894371832,0.561607068,2.639958459,-3.201565527,1288.2480743877472,1287.5661474294413,2563.4872745731586,77.61314006595808,81.78724582,233.85229302193184
1.3798716937982318,-2.519608643,-3.899568387,0.569868475,2.639720041,-3.209588515,1288.2708913609652,1287.6121374163386,2563.406578685052,77.89679656702516,81.92957504176981,234.03911329033917
1.3781583130328663,-2.564322643,-3.942534593,0.593082165,2.660346453,-3.253428618,1287.9153285835744,1287.6655405131064,2563.219756900026,79.26792794926438,83.16279045260458,235.32101495784812
1.4048473695322727,-2.575974565,-3.980895217,0.585563598,2.692871294,-3.278434891,1287.824055706536,1287.8349100287805,2563.617735651255,81.71525285641442,85.59582165,237.7895756278416
1.407257110664745,-2.510140213,-3.917507366,0.551441551,2.662382239,-3.21382379,1288.3529614486515,1287.9533526147068,2563.670175278471,81.48514047775542,85.53933431178704,237.77772240318944
1.3715232906390407,-2.486415735,-3.858015602,0.557446222,2.614769446,-3.172215668,1288.4930155827874,1287.5224299957733,2563.507413494664,79.24067135477263,83.36834974311482,235.8061994175472
1.3409396261648028,-2.452949996,-3.793958264,0.556005185,2.567448945,-3.12345413,1288.369688896701,1287.432970534939,2563.525244737888,77.93394374870373,81.98476307699083,234.6276194
1.298276711802448,-2.413298612,-3.711643391,0.55751095,2.504960051,-3.062471002,1288.0892516081176,1287.696402436374,2563.720303326164,77.55271301232607,81.49880061360896,234.25387812794048
1.3103721906485173,-2.34525443,-3.655686249,0.517441119,2.48302922,-3.000470339,1288.3370155353468,1287.7255479330126,2563.9190131451774,77.30523479755774,81.09748689225393,233.99119811495063
1.3333719420243746,-2.245720854,-3.579138171,0.456174456,2.456255057,-2.912429513,1288.1611852188878,1287.5713229886198,2563.3428872682803,77.71360841922608,81.30392677774512,234.38646521998862
1.3109927690107182,-2.211663695,-3.522727783,0.450335463,2.416860276,-2.867195739,1288.0808262590888,1287.457631441742,2563.1988118688837,78.59924915,82.03915404998266,235.22453192053206
1.2522522862545757,-2.262670277,-3.514996523,0.505208995,2.383624404,-2.8888334,1288.3627214845794,1287.6546725509977,2563.4358941162814,80.62443935516741,84.04377146596036,237.22985027230752
1.1140672915852607,-2.287400617,-3.401543978,0.586666663,2.257805635,-2.844472297,1288.014741036531,1287.6320165422276,2563.458325659656,81.98808707205588,85.54046695319916,238.65638873583856
0.9320027301826465,-2.266525989,-3.198612665,0.667261629,2.065307698,-2.732569327,1287.881778835109,1287.5594201110193,2563.4091594422507,80.00318138472095,83.72310062776347,236.6792395135287
0.771719252,-2.303613131,-3.075373478,0.765946939,1.923546365,-2.689493305,1288.092224220278,1287.6567191114434,2563.555217470681,77.99688606551736,81.78900666375687,234.70986286732602
0.6044687400458753,-2.37357072,-2.97807934,0.88455099,1.79127404,-2.67582503,1288.4275084028616,1287.5637734229945,2563.5424381730927,77.49724131530336,81.13593106012027,234.2866659229766
0.38260588774977466,-2.480899912,-2.863606117,1.049147012,1.623106002,-2.672253014,1288.1082755838263,1287.6952661882412,2563.744523983794,77.25396121518926,80.66104271,234.01009068751296
0.2550256446854948,-2.512553798,-2.767711598,1.128764077,1.511368622,-2.640132698,1288.2374879539752,1287.8136636857953,2563.7083339581955,77.57503105,80.87534390576307,234.26373207955302
0.3069177655538822,-2.373686593,-2.680677426,1.033384414,1.493797596,-2.527182009,1288.1404520356632,1287.4308350360586,2563.7531993494817,78.24772701394636,81.66187482080596,234.87978184529769
0.3693507357201695,-2.274004422,-2.643421258,0.952326843,1.506385997,-2.45871284,1287.715133,1287.4953687447082,2563.7757554295517,79.74889059031796,83.34948759526095,236.3635459568128
0.476238601,-2.249565747,-2.725894267,0.886663573,1.601066434,-2.487730007,1288.2836089971474,1287.7076722031893,2563.481849004804,81.84942638,85.65426027984178,238.47696348535604
0.6430200103151261,-2.160427424,-2.803491167,0.758703707,1.723255589,-2.481959295,1288.4219976829565,1287.7257443019616,2563.788155507727,80.76197412,84.82832279673586,237.57172658280987
0.8265775235291327,-2.072988528,-2.89965176,0.623205502,1.863114642,-2.486320144,1288.1988548522572,1287.9325896190862,2563.474157192991,78.70841326717496,82.83907504330924,235.63949479112583
1.0427774943207049,-2.007046671,-3.049932239,0.482134588,2.046354867,-2.528489455,1288.3184771225974,1287.6840348872065,2563.333210510268,77.57608944,81.60904367570718,234.45316100824238
1.2188554069061588,-2.029940946,-3.248869977,0.405542769,2.233862692,-2.639405462,1288.581600441875,1287.5597707155769,2563.3983852119873,76.97071021025334,80.88686493200402,233.78054176978608
1.3484554602675445,-2.065785193,-3.414338482,0.358664866,2.381396971,-2.740061837,1288.0993402773838,1287.390587348975,2563.5922849470294,77.38716219931203,81.24073513424976,234.12381507715835
1.4571438119551068,-2.124703052,-3.581930943,0.33377962,2.519537377,-2.853316997,1287.8659923165756,1287.4851412018072,2564.083473404246,77.75530244010274,81.65670414262463,234.44862052612135
1.4837825814721697,-2.280442215,-3.76430253,0.398329817,2.624042556,-3.022372373,1287.8870842988476,1287.5582208990807,2563.677423053874,79.00795186536229,82.96399506,235.68993314292422
1.5265185375465091,-2.410019377,-3.936593541,0.44175042,2.731556039,-3.173306459,1288.2616676895384,1287.490064022606,2563.8387798397453,81.43901865,85.49548689324608,238.12561679294453
1.6036281849991187,-2.474542677,-4.078240837,0.435457246,2.840934511,-3.276391757,1288.3307685818754,1287.6331461869918,2563.748490281103,81.3620986,85.68430362000817,238.22930415426575
1.673696157106468,-2.450665324,-4.124482969,0.388484584,2.899089563,-3.287574147,1288.3101213372256,1287.6125293803905,2563.6131668981566,79.16058694,83.64085632802416,236.27706000523432
1.7297911992364252,-2.417301898,-4.147175941,0.343755349,2.93848357,-3.28223892,1288.2252093508177,1287.356976462435,2563.8833425386906,77.49229197032801,81.95709385826552,234.77825283594566
1.730231685504436,-2.472425446,-4.202748319,0.37109688,2.966490002,-3.337586883,1288.0165276388602,1287.7305276924249,2563.579010107357,77.13507017705652,81.54948537839797,234.5325675149507
1.7037705424209977,-2.521136881,-4.225033592,0.408683169,2.964402067,-3.373085237,1288.1754526091713,1287.7777541961293,2563.5348482665613,77.14098424,81.45933121458874,234.55296110612966
1.660353398649373,-2.547893833,-4.208347691,0.443770217,2.934350545,-3.378120762,1288.582632727834,1287.4755887164774,2563.6460696831423,77.36330562,81.46866299690313,234.75206512004561
1.6239820720267086,-2.592786736,-4.216830818,0.484402332,2.920406445,-3.404808777,1288.277200429575,1287.7828887989692,2563.602499777536,78.28243958254087,82.23104466310653,235.64695376759587
1.6142414818814705,-2.636326205,-4.250637384,0.511042362,2.932439433,-3.443481795,1287.984683363298,1287.8286425765614,2563.1228323359533,80.42664219088148,84.41958427557034,237.69794293618762
1.610117288516588,-2.648412467,-4.258628686,0.519147589,2.934372987,-3.453520577,1288.3912791615944,1287.5699017344273,2563.2728783069624,82.01880248512605,86.21019663267853,239.31343713794595
1.6351196274432998,-2.567195255,-4.202415842,0.466037814,2.918767734,-3.384805548,1288.2578451997153,1287.6180030189462,2563.7348201183354,79.78849510331774,84.10771940009197,237.26415929767424
1.6616645179917553,-2.499248217,-4.16097098,0.41879185,2.911317749,-3.330109599,1288.037779373914,1287.784520292122,2563.575777036011,77.28762680100108,81.60297901827617,234.79620807152386
1.6435239409136393,-2.497972646,-4.141512892,0.427224353,2.892518417,-3.319742769,1288.3617004407738,1287.696755585471,2563.284889406021,77.19274522360827,81.44428058904766,234.46902216443752
1.5305436716238996,-2.455356037,-3.985958724,0.462406183,2.758251198,-3.220657381,1288.2709584559886,1287.3976348574413,2563.630238470971,76.95482266642996,81.08247379410926,233.96401864562048
1.4525499575614882,-2.437104925,-3.889738138,0.492277484,2.671144048,-3.163421532,1288.2302763893395,1287.4992269853378,2563.791919763249,77.30406346294703,81.26095700558076,234.1563960926985
1.4851938939149045,-2.435686053,-3.92093851,0.47524608,2.703066202,-3.178312281,1287.838306060294,1288.013909048173,2563.429681744723,77.90151794605111,81.84306291829566,234.7558314112292
1.4275613142593846,-2.436683828,-3.864309364,0.504561257,2.645935339,-3.150496596,1287.669087126474,1287.6969385148348,2563.3746533585404,79.56415624320947,83.55106171022969,236.4184117231418
1.2939328058092696,-2.458029205,-3.75203668,0.5820482,2.522984743,-3.105032943,1288.1134314466374,1287.1830352785028,2563.8739343150164,81.92178920446926,86.02054736,238.80951244547654
1.260111912754768,-2.453267511,-3.713478597,0.596577799,2.486795255,-3.083373054,1288.4703621563203,1287.474887709628,2563.462208295934,80.14966403475103,84.40855345,237.25556427720045
1.2940961719242172,-2.428389473,-3.722566754,0.567146651,2.508331463,-3.075478114,1288.09708,1287.768963474212,2563.0669986193116,77.97329834059835,82.18765096874989,235.15965298014473
1.312935325523033,-2.443893872,-3.756900459,0.565479273,2.534917892,-3.100397165,1287.8557641261748,1287.4524744933894,2563.609720518978,77.60976214604565,81.64377973084333,234.74572263618697
1.3092444859953243,-2.463905192,-3.77324326,0.577330353,2.541243873,-3.118574226,1287.9356136883384,1287.5607568348162,2563.469580617904,77.07650720221025,80.94473719520416,234.2291541
1.3287814185903997,-2.477771495,-3.806622108,0.574495038,2.567701763,-3.142196802,1288.277614474295,1287.4979213794238,2563.5124380135626,77.16345948950715,81.01595078899732,234.34060940856213
1.3487917225253718,-2.484914551,-3.833803453,0.568061414,2.591297588,-3.159359002,1288.3215547924724,1287.3802368613315,2563.7268734465965,77.54728758939123,81.46695786,234.70448604610138
1.3375766091607468,-2.462967946,-3.800631815,0.562695669,2.569104212,-3.131799881,1288.0360431941365,1287.7434520167033,2563.4716888057237,78.84385034919842,82.85535760805705,235.87623674450214
1.3006577632102159,-2.483466951,-3.784185315,0.591404594,2.542421539,-3.133826133,1287.8591867258933,1287.5855207497875,2563.2839536716724,81.37091162640853,85.51385477535113,238.30385504011622
1.305805248661886,-2.445556885,-3.751452226,0.569875818,2.528628737,-3.098504556,1288.2631263794237,1287.5756471765715,2563.7140547285303,81.01821047382745,85.34056565306823,238.1563450354888
1.3353015282736935,-2.407369077,-3.742734655,0.536033774,2.539018091,-3.075051866,1288.2991134798435,1287.5071307501273,2564.0510998521104,78.61861454599685,82.99949969710302,235.94555591229474
1.3473147111714991,-2.418665515,-3.766028062,0.535675402,2.556671387,-3.092346788,1288.0398441311727,1287.5467399345334,2563.7425923349365,77.43719701876935,81.68693517310204,234.8844646797524
1.3586590145290807,-2.413038634,-3.771821351,0.527189809,2.565240183,-3.092429992,1288.0729954332812,1287.5639267773013,2563.4282811337307,77.33443164538379,81.49570651592376,234.87584914356864
1.3529478009858098,-2.409732199,-3.762771734,0.528392199,2.557859768,-3.086251967,1288.282502082276,1287.7307711815229,2563.1828473945834,77.10831238424362,81.20186294375183,234.5786737465098
1.3434663364299277,-2.401727574,-3.745271869,0.529130619,2.544369103,-3.073499721,1288.3033213654774,1287.5725623930023,2563.1655507157434,77.23804803664233,81.26771499803836,234.57121181666272
1.3436048434950916,-2.431786634,-3.775457194,0.544090895,2.559531019,-3.103621914,1288.3450578828183,1287.3431534694646,2563.309086043815,78.40458139335655,82.43208953873877,235.55765419544804
1.3210648104235971,-2.470123643,-3.791252791,0.574529416,2.556158801,-3.130688217,1288.4501220607865,1287.5701959131281,2563.6292354391403,80.56116235104908,84.69236210716042,237.70042335648148
1.297760207862562,-2.500484231,-3.798347681,0.601362012,2.548053944,-3.149415956,1287.9834886592423,1287.2447177798556,2563.596447066853,81.43953884030068,85.83093481090046,238.7671814693877
1.3032191406444555,-2.462707229,-3.765984784,0.579744044,2.534601962,-3.114346006,1287.8637655575283,1287.3001423681894,2563.6895052150176,79.55849883257808,84.21259175200008,236.98533882396097
1.2879832277508934,-2.401565851,-3.689563462,0.556791312,2.488773345,-3.045564657,1288.4627117831903,1287.6484397885238,2563.8480199103433,77.66207172548924,82.38093132,235.16987504911134
1.2898961667353834,-2.402843659,-3.692820378,0.556473746,2.491358272,-3.047832018,1288.2839883889153,1287.6980760284366,2563.461509700092,76.89051090924694,81.53593637561964,234.47057126144932
1.3102279473434941,-2.410843835,-3.721166766,0.550307944,2.515697357,-3.066005301,1287.8757714193493,1287.6335919940034,2563.384158795346,76.89945042483302,81.43477700930026,234.46684683331677
1.294618831694952,-2.403121311,-3.697812684,0.55425124,2.496215758,-3.050466997,1288.2661026178857,1288.2361443176515,2563.4339639366644,77.46337074213872,81.87201999550135,235.07394267413326
1.3193965125245921,-2.410485252,-3.729927137,0.54554437,2.524661825,-3.070206194,1288.370897986129,1288.054004089238,2564.1253948973585,78.18564049226794,82.50560558374119,235.8726077057249
1.315134731934015,-2.457754565,-3.772956186,0.571309917,2.544045459,-3.115355376,1287.9839947642329,1287.2486079721168,2563.980767649233,79.84723248535417,84.14410147922665,237.55527663298224
1.2661094612191723,-2.503055786,-3.769256364,0.618473163,2.517682912,-3.136156075,1287.7772844566732,1287.3914482719194,2563.5995474039933,81.74875011745331,86.16442132821395,239.46271770773538
1.2876247033062265,-2.459420174,-3.747109867,0.585897735,2.517367285,-3.103265021,1288.1833174180233,1287.3384313094684,2563.5938826849388,80.70190011,85.34917736021755,238.56989895205058
1.3105747896614444,-2.412675519,-3.723325007,0.551050365,2.516949898,-3.068000263,1288.3961724011406,1287.1891903249455,2563.307154072227,79.01171764398565,83.80143624111548,236.9636781901167
1.3319759268074263,-2.414456053,-3.746489474,0.541240063,2.539232701,-3.080472764,1288.339869529998,1287.4792742300042,2563.257169862448,77.84699307768153,82.67322216881058,235.72673926659718
1.346322066423183,-2.377597219,-3.723993517,0.515637576,2.535157792,-3.050795368,1288.4211051227987,1287.8391783447414,2563.753120577308,77.17341770784199,81.96252573849559,234.93991789788413
1.3195948839651517,-2.367181816,-3.686902492,0.523793466,2.503248688,-3.027042154,1288.2187470992978,1287.5960110840574,2563.6910092076214,77.42253116167788,82.14497771245314,235.1332696379524
1.314009081670069,-2.427621578,-3.741733817,0.556806248,2.527871449,-3.084677698,1288.292876799392,1287.6811294985685,2563.354653337291,77.98561952,82.59114609468601,235.62566150890203
1.2597530842472204,-2.462158016,-3.721955848,0.601202466,2.490854466,-3.092056932,1288.2287432810833,1288.1563526811817,2563.8765562352173,79.20062991091271,83.64375998632569,236.7355363102547
1.2103043537807001,-2.507562992,-3.717909797,0.648629319,2.464107075,-3.112736395,1287.6485695608822,1287.6964103210373,2564.202630572958,81.47036546395016,85.96288583121783,238.9416109
1.2155909602939394,-2.505798685,-3.721454535,0.645103862,2.468522747,-3.11362661,1288.0792251231842,1287.407296296382,2563.8876248272695,81.25744353237997,86.05854866533774,238.8719273402295
1.2553527172838974,-2.444430242,-3.699867473,0.594538762,2.477610095,-3.072148858,1288.4612826635255,1287.5110046284776,2563.6736603368954,79.08453855699256,84.00828057138473,236.8829267773056
1.2503209063494192,-2.41025955,-3.660641211,0.579969322,2.455481059,-3.035450381,1287.7648197680596,1287.3621388292922,2563.7298254376424,77.81772119,82.63379353490522,235.70272890445918
1.2282545418886448,-2.392222574,-3.620538843,0.581984016,2.424396693,-3.006380709,1287.873468,1287.377063318713,2563.543217819869,77.37263785015315,82.09691965,235.33313016794378
1.2495655967082653,-2.387001808,-3.636632111,0.568718106,2.443098854,-3.011816959,1288.4665999058361,1287.3004675620955,2563.4434293863337,77.30321393689029,81.85785253867941,235.3727958165206
1.2630069089564049,-2.399980849,-3.663021001,0.56848697,2.463013955,-3.031500925,1288.4524379402458,1287.3673249817346,2563.5513861999175,77.57878941900672,81.84257670417719,235.73299039663533
1.243593214063882,-2.448364031,-3.692031415,0.602385408,2.467812314,-3.070197723,1288.0664573464485,1287.7120875274097,2563.737369427075,78.75612730604637,82.87530558068096,236.8741179193149
1.2466825312426004,-2.503241071,-3.750002057,0.62827927,2.498342294,-3.126621564,1288.4030183024333,1287.8965980373928,2563.502568612302,80.53915079091978,84.79689621339267,238.63146858169782
1.2568311949891187,-2.499155999,-3.756075388,0.621162402,2.506453292,-3.127615694,1288.6839955317066,1287.911595744556,2563.3099686416085,81.58944858879038,86.11711737331238,239.8724077973229
1.2780953444036385,-2.431368323,-3.709566406,0.576636489,2.493830875,-3.070467364,1287.949419217475,1287.5626503664585,2563.8300745206025,79.78603871371662,84.59403805954366,238.26136275020616
1.2834776953259155,-2.360360691,-3.643893377,0.538441498,2.463685536,-3.002127034,1287.7826158763537,1287.929589127228,2563.5726417620035,77.80954471028159,82.78365100612658,236.33531530768886
1.3000901957555229,-2.372065883,-3.67225678,0.535987844,2.486173488,-3.022161332,1288.097001580665,1287.930906520978,2562.9909422197175,77.40828100618447,82.39089022,235.9788469106737
1.3126579516892434,-2.386523594,-3.69931959,0.536932821,2.505988771,-3.042921592,1287.966106988646,1287.504893488526,2563.4173727347074,77.10793465518435,82.05257052705488,235.64808219130265
1.2833200123265764,-2.370617455,-3.654014122,0.543648721,2.468667067,-3.012315789,1288.2817112129158,1287.489272776052,2563.5456237018016,77.33977117563282,82.21280713,235.78802898114023
1.2377824388895402,-2.376612164,-3.614420066,0.569414863,2.426101253,-2.995516115,1288.4560841380658,1287.6722705394618,2563.401351516495,78.17482382225816,82.90222711136232,236.54384216157976
1.2230823950994811,-2.40815337,-3.631274337,0.592535488,2.427178366,-3.019713853,1288.2264512508264,1287.4360131582966,2563.5081337447923,79.53133941,84.18503552,237.8181760669619
1.2462897635006864,-2.479299251,-3.725669612,0.616504744,2.485979688,-3.102484431,1288.0438130640928,1287.731691526755,2563.6917908678183,81.66933329702898,86.40556581,239.92545958029496
1.218561637432158,-2.443700019,-3.662337483,0.612569191,2.44044956,-3.053018751,1288.0991933373102,1288.1260296598928,2563.9645193065558,80.67857377,85.48533110942216,239.09439176661346
1.1844593009283637,-2.364293031,-3.548829898,0.589916865,2.366644599,-2.956561464,1288.0247628894083,1287.8365724250905,2563.677845606191,78.41202544791236,83.10262648178714,237.0632674872566
1.2317141676503305,-2.352839511,-3.584687287,0.560562672,2.408200727,-2.968763399,1287.9095253518324,1287.5694824973016,2563.8153912493513,77.44341404915296,81.99660328470283,236.19953816965756
1.2604122163623657,-2.371134864,-3.631640051,0.555361324,2.446026134,-3.001387458,1288.486216631094,1287.524359780801,2563.8486506715326,77.01245759010645,81.36560313728967,235.72342499694955
1.2454194446185054,-2.387472266,-3.632970462,0.571026411,2.439194953,-3.010221364,1288.3533446572487,1287.443513820718,2563.3758954375553,77.14508922079604,81.22994452,235.78305384165063
1.2114094871672467,-2.389572806,-3.60106324,0.589081659,2.406236364,-2.995318023,1288.1614219111357,1287.6696303689334,2563.561167482881,77.77883983,81.62488475767404,236.29733810994514
1.1733778950469993,-2.395579672,-3.569028397,0.611100888,2.371203146,-2.982304034,1288.3906818647924,1287.7635688567693,2563.9488677790278,79.04336763141957,82.73140893316896,237.44579882625055
1.2043707980623177,-2.41833458,-3.622812309,0.606981891,2.413591554,-3.020573445,1288.2254355080922,1287.6710568234173,2563.9394724186886,81.28197335297816,85.06323745412143,239.66496075707013
1.224147984096096,-2.403962294,-3.628217013,0.589907155,2.426182498,-3.016089654,1288.1215774242855,1287.7082799212515,2563.696385399166,81.24523309587163,85.29677704562268,239.7752795187242
1.2140172979745198,-2.359314451,-3.57341908,0.572648576,2.393718189,-2.966366766,1288.2209355287662,1287.5449981189352,2563.506063045581,79.14617709735032,83.40568382438015,237.73071721220813
1.2213979330952462,-2.359433621,-3.580881042,0.569017844,2.401139488,-2.970157332,1287.8466048221903,1287.7310359984313,2563.6179826842113,77.60951423971284,82.04092376001135,236.0668019638564
1.2249171501694154,-2.372722768,-3.597705265,0.573902809,2.411311208,-2.985214016,1287.769864777587,1287.5472638456015,2563.4781972510677,77.08361948069967,81.39343158532776,235.44202304424124
1.2251320407887838,-2.341626066,-3.566859932,0.558247013,2.395995986,-2.954242999,1288.339156523062,1287.5003341128534,2563.3447470495266,77.24079334623437,81.25160607,235.62239813644308
1.2039813030778195,-2.344099287,-3.548175595,0.570058992,2.376078449,-2.946137441,1288.2034112638507,1287.7248466942347,2563.613140467867,77.93897303888944,81.86672832453098,236.32896318300084
1.1728978506205023,-2.375422339,-3.548370384,0.601262244,2.360634117,-2.961896361,1288.1104221517576,1287.638003304877,2563.5856831004294,78.64707066,82.62344884065726,236.95174488614236
1.1613787120609158,-2.399448067,-3.560878046,0.619034677,2.361128379,-2.980163057,1288.2037124847686,1287.7466186491965,2563.449717129738,80.62058379802207,84.70702653743774,238.86956782478163
1.1640242607581752,-2.414089748,-3.578199595,0.625032744,2.371111928,-2.996144671,1288.1260186505626,1287.3616823689736,2563.4034355032954,81.40548792,85.74117502468073,239.71695387337886
1.1781482519490563,-2.365482587,-3.543719949,0.593667167,2.3609341,-2.954601268,1287.9328006978928,1287.365521816433,2563.666570763774,79.38152250736017,83.89497105852998,237.6736561821065
1.204476444443586,-2.307194466,-3.511709225,0.551359011,2.358092835,-2.909451845,1288.150943609272,1287.5234040409578,2564.0431769865995,77.79170464,82.22918002672091,235.96457725445285
1.231112096,-2.293943206,-3.525097546,0.531415555,2.378104821,-2.909520376,1288.382586828073,1287.090848534395,2563.908960532962,77.22873633974179,81.52674710732626,235.3577783791745
1.221204446671563,-2.28754757,-3.508827616,0.533171562,2.365016032,-2.898187593,1288.2992265432501,1287.433388224941,2563.3372694774143,77.08548740239145,81.27669626,235.19044685479784
1.1931211686925784,-2.294135938,-3.487346899,0.550507385,2.340234034,-2.890741419,1288.226576749436,1288.086745695286,2563.491907,77.25087441233093,81.34681874834367,235.19274843329555
1.190951191271604,-2.306666763,-3.49769808,0.557857786,2.344324636,-2.902182422,1288.1160924379174,1287.7864170970984,2563.915639212871,77.97722985773707,82.05263857208445,235.6827094826805
1.192378538349914,-2.317615038,-3.510079122,0.56261825,2.35122883,-2.91384708,1287.726346623055,1287.3863466340392,2563.901550444354,79.75027553573305,83.86966580887497,237.35794469701932
1.1832511904012644,-2.342215896,-3.525566962,0.579482353,2.354409076,-2.933891429,1287.9671882801251,1287.4607036919758,2563.494174613099,81.86188186976081,86.08755652979907,239.4420553651878
1.1710782108018185,-2.312774841,-3.483923915,0.570848315,2.327501063,-2.898349378,1288.1917387988758,1287.5187486857674,2563.040168350219,80.57960125200107,84.97429515419273,238.18121002956545
1.1719021245314702,-2.26649379,-3.438465221,0.547295833,2.305183673,-2.852479506,1287.8915752740486,1287.6936088390569,2563.5733753440545,78.15844529,82.68249159095147,235.84404763019504
1.1692735695687642,-2.275036702,-3.444398337,0.552881566,2.306835953,-2.85971752,1288.3120694763033,1287.6077627065358,2563.2927033232836,77.54619715348394,82.07294560621287,235.2336988763606
1.1742531296316205,-2.280486421,-3.45481209,0.553116646,2.31453261,-2.867649255,1288.4038358975895,1287.6662472374055,2563.2442947218115,77.24677261892025,81.66895688,234.80978165419242
1.166970408647992,-2.261332477,-3.428358949,0.547181034,2.297664679,-2.844845713,1288.2785375982157,1287.7232555617327,2563.6781989591777,77.35905888892577,81.61446725528408,234.81187276920045
1.1472133527247075,-2.273840122,-3.421130896,0.563313385,2.284172125,-2.847485509,1288.3271098592422,1287.853226271789,2563.6669249335987,77.78247958223935,81.85529715631687,235.03468029111957
1.1406806361439052,-2.294648257,-3.43542243,0.576983811,2.288051533,-2.865035343,1288.3541267587975,1287.711796148561,2563.5815980685547,78.97701490869855,82.99714886122209,235.9885189664464
1.1359712198251206,-2.299439776,-3.435513509,0.581734278,2.285742364,-2.867476642,1288.1810328075717,1287.2252491470913,2563.176353279684,81.49439745146424,85.63485394109063,238.3245721172345
1.171955634692312,-2.260318949,-3.432379406,0.544181657,2.302167521,-2.846349178,1288.0343811920752,1287.796864697333,2563.4748873890912,81.28644409379626,85.64810881163639,238.06621376217632
1.1752260077491061,-2.214385272,-3.389688414,0.519579632,2.282457211,-2.802036843,1288.3610813735804,1287.9115078548698,2563.537255361002,78.81700663413112,83.40126672461868,235.65747896734175
1.1619427020814677,-2.201854777,-3.363841625,0.519956038,2.262892164,-2.782848201,1288.1598354198663,1287.8242191623715,2563.4309964393256,77.53645460489054,82.17521674088673,234.37856554572213
1.1614594627856507,-2.200144461,-3.361691897,0.519342499,2.26157568,-2.780918179,1288.1085497325262,1287.9400699744244,2563.8914719538993,77.52515956,82.00374291557237,234.27675886927742
1.1392086789970393,-2.200239518,-3.339569674,0.53051542,2.239389177,-2.769904596,1288.575981762085,1287.2552930117245,2563.9603680595137,77.42249466836465,81.82790022008291,234.09481782822246
1.1464978501285288,-2.217613333,-3.364207717,0.535557742,2.255352784,-2.790910525,1288.8583813906569,1287.1507590719186,2563.9058456255666,77.29482814262346,81.78728293849706,233.95813473358248
1.1010191708514272,-2.240410626,-3.341500541,0.569695728,2.221259856,-2.790955583,1288.644030867595,1287.199039951083,2563.685987650773,78.64047941727362,83.16239873656323,235.2317238460238
