Lead I,Lead II,Lead III,aVR,aVL,aVF,V1',V2',V3',V4',V5',V6'
1.3957580871088013,-2.446351049,-3.842125422,0.525296481,2.618941755,-3.144238236,0,0,0,0,0,0
1.4183418758308377,-2.402119108,-3.820559023,0.491888616,2.61945045,-3.111339066,0,0,0,0,0,0
1.404650413815452,-2.411399728,-3.816121237,0.503374657,2.610385825,-3.113760482,0,0,0,0,0,0
1.3812199717942364,-2.433290516,-3.814545222,0.526035272,2.597882597,-3.123917869,0,0,0,0,0,0
1.3552001878226898,-2.471708934,-3.826991749,0.558254373,2.591095968,-3.149350341,0,0,0,0,0,0
1.334866559318609,-2.546565722,-3.881509432,0.605849581,2.608187996,-3.214037577,0,0,0,0,0,0
1.3505615160806939,-2.496654208,-3.847343779,0.573046346,2.598952648,-3.171998993,0,0,0,0,0,0
1.3714112943882866,-2.406737513,-3.778285124,0.517663109,2.574848209,-3.092511318,0,0,0,0,0,0
1.3697293497249712,-2.40512427,-3.774934297,0.51769746,2.572331823,-3.090029284,0,0,0,0,0,0
1.3676013775997031,-2.423743444,-3.79144666,0.528071033,2.579524019,-3.107595052,0,0,0,0,0,0
1.387449110064587,-2.428880604,-3.816403769,0.520715747,2.601926439,-3.122642186,0,0,0,0,0,0
1.3821567340013703,-2.437464321,-3.819673327,0.527653793,2.600915031,-3.128568824,0,0,0,0,0,0
1.3854324374827292,-2.471229897,-3.856748249,0.54289873,2.621090343,-3.163989073,0,0,0,0,0,0
1.4070158338496133,-2.508908122,-3.916000761,0.550946144,2.661508298,-3.212454442,0,0,0,0,0,0
1.4025686988941881,-2.503201028,-3.905837792,0.550316164,2.654203246,-3.20451941,0,0,0,0,0,0
1.3932198886770408,-2.459379749,-3.85269184,0.53307993,2.622955864,-3.156035794,0,0,0,0,0,0
1.3243244866259103,-2.441494438,-3.765899157,0.558584976,2.545111822,-3.103696797,0,0,0,0,0,0
1.3210522678913479,-2.443046349,-3.764150164,0.56099704,2.542601216,-3.103598256,0,0,0,0,0,0
1.348314533711951,-2.443890182,-3.792261251,0.547787824,2.570287893,-3.118075717,0,0,0,0,0,0
1.3282786962202242,-2.43430084,-3.76263206,0.553011072,2.545455378,-3.09846645,0,0,0,0,0,0
1.3137091230016211,-2.467626272,-3.78139669,0.576958574,2.547552906,-3.124511481,0,0,0,0,0,0
1.3047219948304263,-2.529081486,-3.833850418,0.612179745,2.569286207,-3.181465952,0,0,0,0,0,0
1.3217128867237933,-2.517714045,-3.8395026,0.598000579,2.580607743,-3.178608322,0,0,0,0,0,0
1.352352164403443,-2.480638776,-3.833069792,0.564143306,2.592710978,-3.156854284,0,0,0,0,0,0
1.3784755578911545,-2.451505819,-3.830039465,0.536515131,2.604257511,-3.140772642,0,0,0,0,0,0
1.4345775992948042,-2.395202664,-3.829854694,0.480312532,2.632216147,-3.112528679,0,0,0,0,0,0
1.4348637978156915,-2.385917129,-3.820889292,0.475526665,2.627876545,-3.10340321,0,0,0,0,0,0
1.3519803097910936,-2.427757483,-3.779869292,0.537888587,2.565924801,-3.103813387,0,0,0,0,0,0
1.327200187558896,-2.465844015,-3.793145482,0.569321914,2.560172835,-3.129494749,0,0,0,0,0,0
1.29745098,-2.492777226,-3.790301828,0.597663123,2.543876404,-3.141539527,0,0,0,0,0,0
1.2644783259362133,-2.529855676,-3.794421246,0.632688675,2.529449786,-3.162138461,0,0,0,0,0,0
1.2796694647890507,-2.490726625,-3.770481204,0.60552858,2.525075334,-3.130603914,0,0,0,0,0,0
1.313269549576073,-2.431149661,-3.744517699,0.558940055,2.528893624,-3.08783368,0,0,0,0,0,0
1.331598182,-2.455550184,-3.787235863,0.561976001,2.559417022,-3.121393024,0,0,0,0,0,0
1.3491448071694294,-2.470618739,-3.819862917,0.560736966,2.584503862,-3.145240828,0,0,0,0,0,0
1.3512584886021088,-2.449870848,-3.8012263,0.54930618,2.576242394,-3.125548574,0,0,0,0,0,0
1.2992374312139632,-2.465823162,-3.765134532,0.583292865,2.532185982,-3.115478847,0,0,0,0,0,0
1.2833009526103047,-2.494140276,-3.777531032,0.605419662,2.530415992,-3.135835654,0,0,0,0,0,0
1.3046583934744815,-2.53695169,-3.841688745,0.616146648,2.573173569,-3.189320217,0,0,0,0,0,0
1.291207176222535,-2.524928848,-3.816221358,0.616860836,2.553714267,-3.170575103,0,0,0,0,0,0
1.3015006903846054,-2.457668458,-3.759274619,0.578083884,2.530387655,-3.108471539,0,0,0,0,0,0
1.3467107953048723,-2.473032068,-3.819801317,0.563160636,2.583256056,-3.146416692,0,0,0,0,0,0
1.3507298374061543,-2.547945457,-3.898762228,0.59860781,2.624746033,-3.223353843,0,0,0,0,0,0
1.2851892981921273,-2.553645369,-3.83888902,0.634228035,2.562039159,-3.196267195,0,0,0,0,0,0
1.2407615544362736,-2.528025869,-3.768834864,0.643632157,2.504798209,-3.148430366,0,0,0,0,0,0
1.2451779080141432,-2.50646583,-3.751730449,0.630643961,2.498454178,-3.129098139,0,0,0,0,0,0
1.2343793949436865,-2.530808442,-3.765247731,0.648214524,2.499813563,-3.148028087,0,0,0,0,0,0
1.2231162244663898,-2.558635136,-3.781846299,0.667759456,2.502481262,-3.170240717,0,0,0,0,0,0
1.217214223851002,-2.520143134,-3.737448173,0.651464455,2.477331198,-3.128795653,0,0,0,0,0,0
1.2134704567354837,-2.46854969,-3.682032773,0.627539617,2.447751615,-3.075291232,0,0,0,0,0,0
1.2308771761663133,-2.486380155,-3.717302144,0.627751489,2.47408966,-3.10184115,0,0,0,0,0,0
1.2144551109497668,-2.507676244,-3.722201866,0.646610566,2.468328488,-3.114939055,0,0,0,0,0,0
1.1786426290015353,-2.511591095,-3.690309856,0.666474233,2.434476243,-3.100950476,0,0,0,0,0,0
1.2194433823915478,-2.51718858,-3.736760305,0.648872599,2.478101844,-3.126974443,0,0,0,0,0,0
1.2392173287617896,-2.557587266,-3.796906388,0.659184969,2.518061858,-3.177246827,0,0,0,0,0,0
1.1984085625317062,-2.599459255,-3.797953892,0.700525346,2.498181227,-3.198706574,0,0,0,0,0,0
1.1928911990087694,-2.577000661,-3.769978901,0.692054731,2.48143505,-3.173489781,0,0,0,0,0,0
1.1818900300318935,-2.538620683,-3.720586907,0.678365326,2.451238468,-3.129603795,0,0,0,0,0,0
1.1824651039686342,-2.547890197,-3.730469365,0.682712547,2.456467234,-3.139179781,0,0,0,0,0,0
1.2126419079464417,-2.550144443,-3.762897271,0.668751268,2.487769589,-3.156520857,0,0,0,0,0,0
1.2324103688950618,-2.48974078,-3.722224334,0.628665205,2.477317351,-3.105982557,0,0,0,0,0,0
1.2227128170873305,-2.475715909,-3.69849501,0.626501546,2.460603914,-3.08710546,0,0,0,0,0,0
1.2286666313657884,-2.522446384,-3.75121696,0.646889876,2.489941796,-3.136831672,0,0,0,0,0,0
1.2217607888380693,-2.566462798,-3.788347321,0.672351005,2.505054055,-3.177405059,0,0,0,0,0,0
1.2301938136445236,-2.514663924,-3.744917964,0.642235055,2.487555889,-3.129790944,0,0,0,0,0,0
1.2716248293676666,-2.454340673,-3.726025709,0.591357922,2.498825269,-3.090183191,0,0,0,0,0,0
1.2961049868926477,-2.469162485,-3.765337891,0.586528749,2.530721439,-3.117250188,0,0,0,0,0,0
1.2679222786284463,-2.472193524,-3.740157884,0.602135623,2.504040081,-3.106175704,0,0,0,0,0,0
1.2352015544485961,-2.473633126,-3.708887096,0.619215786,2.472044325,-3.091260111,0,0,0,0,0,0
1.2520092992043201,-2.506627783,-3.758716318,0.627309242,2.505362808,-3.13267205,0,0,0,0,0,0
1.2455219310465075,-2.533836885,-3.779433584,0.644157477,2.512477757,-3.156635234,0,0,0,0,0,0
1.235184295,-2.550677296,-3.785933001,0.657746501,2.510558648,-3.168305149,0,0,0,0,0,0
1.2562114002483062,-2.536623616,-3.792906921,0.640206108,2.52455916,-3.164765268,0,0,0,0,0,0
1.2872525778556407,-2.4954352,-3.782742398,0.604091311,2.534997488,-3.139088799,0,0,0,0,0,0
1.328124595073122,-2.483046066,-3.811224141,0.577460735,2.569674368,-3.147135104,0,0,0,0,0,0
1.3389433239064659,-2.466483625,-3.805514936,0.563770151,2.57222913,-3.135999281,0,0,0,0,0,0
1.343743445905421,-2.445412618,-3.789230981,0.550834586,2.566487213,-3.1173218,0,0,0,0,0,0
1.348842184530598,-2.4653093,-3.814236347,0.558233557,2.581539266,-3.139772823,0,0,0,0,0,0
1.335058721019525,-2.487403127,-3.822573413,0.576172203,2.578816067,-3.15498827,0,0,0,0,0,0
1.3320952343756687,-2.488994354,-3.821184552,0.57844956,2.576639893,-3.155089453,0,0,0,0,0,0
1.346207559326772,-2.510758841,-3.857064632,0.582275641,2.601636096,-3.183911737,0,0,0,0,0,0
1.3618851417252753,-2.48967133,-3.851652314,0.563893094,2.606768728,-3.170661822,0,0,0,0,0,0
1.3817067426089074,-2.464545797,-3.846326253,0.541419527,2.614016498,-3.155436025,0,0,0,0,0,0
1.3162494177749964,-2.482603968,-3.798928376,0.583177275,2.557588897,-3.140766172,0,0,0,0,0,0
1.3065082576750482,-2.451295352,-3.757892958,0.572393547,2.532200608,-3.104594155,0,0,0,0,0,0
1.3583008264505556,-2.449401259,-3.80778717,0.545550216,2.583043998,-3.128594215,0,0,0,0,0,0
1.3434000289492065,-2.477446688,-3.820900385,0.567023329,2.582150207,-3.149173536,0,0,0,0,0,0
1.335851174923245,-2.503860709,-3.839766063,0.584004767,2.587808619,-3.171813386,0,0,0,0,0,0
1.3236056315408367,-2.538733546,-3.862403217,0.607563957,2.593004424,-3.200568381,0,0,0,0,0,0
1.3248705768590445,-2.512532825,-3.837459303,0.593831124,2.58116494,-3.174996064,0,0,0,0,0,0
1.348648735460122,-2.441280086,-3.790001228,0.546315676,2.569324982,-3.115640657,0,0,0,0,0,0
1.3363193421645037,-2.400823333,-3.737202734,0.532251995,2.536761038,-3.069013034,0,0,0,0,0,0
1.3654711330081317,-2.425254024,-3.790768032,0.529891445,2.578119582,-3.108011028,0,0,0,0,0,0
1.422976454108885,-2.464579457,-3.887603355,0.520801502,2.655289904,-3.176091406,0,0,0,0,0,0
1.4277504504955496,-2.447977998,-3.875803551,0.510113774,2.651777001,-3.161890774,0,0,0,0,0,0
1.4169293514912655,-2.449213779,-3.866236996,0.516142214,2.641583174,-3.157725387,0,0,0,0,0,0
1.4318230142710449,-2.498663486,-3.930571472,0.533420236,2.681197243,-3.214617479,0,0,0,0,0,0
1.4036653275781137,-2.50409508,-3.907847766,0.550214876,2.655756547,-3.205971423,0,0,0,0,0,0
1.358904580695555,-2.463604309,-3.822576778,0.552349864,2.590740679,-3.143090544,0,0,0,0,0,0
1.3582634650519567,-2.425297359,-3.783623031,0.533516947,2.570943248,-3.104460195,0,0,0,0,0,0
1.3722365890370194,-2.441124368,-3.813460978,0.534443889,2.592848783,-3.127292673,0,0,0,0,0,0
1.4031366649207924,-2.45060203,-3.853809291,0.523732683,2.628472978,-3.152205661,0,0,0,0,0,0
1.4371655936302183,-2.436833315,-3.874022023,0.499833861,2.655593808,-3.155427669,0,0,0,0,0,0
1.3887060565618468,-2.484119149,-3.872882548,0.547706546,2.630794302,-3.178500849,0,0,0,0,0,0
1.3241096388375106,-2.524144676,-3.848323989,0.600017519,2.586216814,-3.186234332,0,0,0,0,0,0
1.3132711708492528,-2.510164497,-3.823494093,0.598446663,2.568382632,-3.166829295,0,0,0,0,0,0
1.3115957841115065,-2.481833505,-3.793508587,0.585118861,2.552552186,-3.137671046,0,0,0,0,0,0
1.3301299477767363,-2.459293154,-3.78947216,0.564581603,2.559801054,-3.124382657,0,0,0,0,0,0
1.3631302764141806,-2.475118902,-3.83828611,0.555994313,2.600708193,-3.156702506,0,0,0,0,0,0
1.3612302366852977,-2.520149399,-3.881460787,0.579459581,2.621345512,-3.200805093,0,0,0,0,0,0
1.3433385951785801,-2.500349363,-3.843742791,0.578505384,2.593540693,-3.172046077,0,0,0,0,0,0
1.3568008228047934,-2.473240379,-3.830095747,0.558219778,2.593448285,-3.151668063,0,0,0,0,0,0
1.3471909016798802,-2.509133406,-3.856418038,0.580971252,2.60180447,-3.182775722,0,0,0,0,0,0
1.3336832780149526,-2.512071705,-3.845852026,0.589194214,2.589767652,-3.178961866,0,0,0,0,0,0
1.3420033537126836,-2.420204632,-3.762269202,0.539100639,2.552136278,-3.091236917,0,0,0,0,0,0
1.3631809297116773,-2.277677143,-3.640898837,0.457248107,2.502039883,-2.95928799,0,0,0,0,0,0
1.3830243154839459,-2.19125333,-3.574330972,0.404114507,2.478677644,-2.882792151,0,0,0,0,0,0
1.3491163574993896,-2.139572453,-3.488768817,0.395228048,2.418942587,-2.814170635,0,0,0,0,0,0
1.233995664454833,-2.119344935,-3.353421178,0.442674635,2.293708421,-2.736383056,0,0,0,0,0,0
1.0949500531134646,-2.153403987,-3.248449967,0.529226967,2.17170001,-2.700926977,0,0,0,0,0,0
0.9352501330828882,-2.180057451,-3.115397008,0.622403659,2.025323571,-2.64772723,0,0,0,0,0,0
0.7562312608172364,-2.238322051,-2.994630331,0.741045395,1.875430796,-2.616476191,0,0,0,0,0,0
0.5589484116741437,-2.331969413,-2.891008693,0.886510501,1.724978552,-2.611489053,0,0,0,0,0,0
0.31362878694865176,-2.390775527,-2.704464083,1.03857337,1.509046435,-2.547619805,0,0,0,0,0,0
0.2856331985727535,-2.299063556,-2.584743041,1.006715179,1.43518812,-2.441903298,0,0,0,0,0,0
0.42640454951465545,-2.128586697,-2.555080768,0.851091074,1.490742659,-2.341833732,0,0,0,0,0,0
0.5222889065019387,-2.055740359,-2.578131565,0.766725726,1.550210236,-2.316935962,0,0,0,0,0,0
0.6271646369465571,-2.022630085,-2.649891406,0.697732724,1.638528021,-2.336260745,0,0,0,0,0,0
0.7591610050808911,-1.979562317,-2.738825079,0.610200656,1.748993042,-2.359193698,0,0,0,0,0,0
0.9285300222793113,-1.942884911,-2.871511486,0.507177444,1.900020754,-2.407198198,0,0,0,0,0,0
1.1176762385491785,-1.979784283,-3.097546214,0.431054022,2.107611226,-2.538665249,0,0,0,0,0,0
1.2639318721292492,-2.017526502,-3.281584036,0.376797315,2.272757954,-2.649555269,0,0,0,0,0,0
1.3809502241272062,-2.052205081,-3.433262462,0.335627428,2.407106343,-2.742733772,0,0,0,0,0,0
1.4954177390741772,-2.172377211,-3.667863152,0.338479736,2.581640445,-2.920120181,0,0,0,0,0,0
1.5340812085769837,-2.323252518,-3.857410875,0.394585655,2.695746042,-3.090331697,0,0,0,0,0,0
1.5446529717482156,-2.421698523,-3.966442244,0.438522776,2.755547608,-3.194070383,0,0,0,0,0,0
1.6026574995413854,-2.481754934,-4.08448934,0.439548717,2.84357342,-3.283122137,0,0,0,0,0,0
1.7129718769044122,-2.494596087,-4.207655893,0.390812105,2.960313885,-3.35112599,0,0,0,0,0,0
1.7169965738349557,-2.515296268,-4.232354799,0.399149847,2.974675686,-3.373825534,0,0,0,0,0,0
1.662554536933131,-2.54602321,-4.208623018,0.441734337,2.935588777,-3.377323114,0,0,0,0,0,0
1.6629472886471452,-2.548599747,-4.21164153,0.442826229,2.937294409,-3.380120638,0,0,0,0,0,0
1.6637324793074253,-2.564422388,-4.228253584,0.450344954,2.945993032,-3.396337986,0,0,0,0,0,0
1.6650278810220203,-2.577890311,-4.242965094,0.456431215,2.953996488,-3.410427702,0,0,0,0,0,0
1.6530602234469212,-2.574131702,-4.227261196,0.460535739,2.94016071,-3.400696449,0,0,0,0,0,0
1.6376663362090729,-2.55667275,-4.194432015,0.459503207,2.916049175,-3.375552382,0,0,0,0,0,0
1.5910988788111604,-2.553116292,-4.144276062,0.481008707,2.86768747,-3.348696177,0,0,0,0,0,0
1.5567779365545427,-2.564238138,-4.121079389,0.503730101,2.838928663,-3.342658764,0,0,0,0,0,0
1.5462973790276597,-2.510360856,-4.056730573,0.482031738,2.801513976,-3.283545714,0,0,0,0,0,0
1.5289100249824759,-2.443661182,-3.972644809,0.457375578,2.750777417,-3.208152995,0,0,0,0,0,0
1.518805755018758,-2.413356956,-3.932257965,0.4472756,2.72553186,-3.17280746,0,0,0,0,0,0
1.4383290540465443,-2.412228517,-3.85066813,0.486949732,2.644498592,-3.131448324,0,0,0,0,0,0
1.3843380195927282,-2.406775455,-3.791202614,0.511218718,2.587770317,-3.098989034,0,0,0,0,0,0
1.401899396375103,-2.393175366,-3.795137054,0.495637985,2.598518225,-3.09415621,0,0,0,0,0,0
1.3899044823079405,-2.420811607,-3.810783184,0.515453563,2.600343833,-3.115797396,0,0,0,0,0,0
1.3428354276170575,-2.471863613,-3.81475763,0.564514093,2.578796529,-3.143310621,0,0,0,0,0,0
1.325241331559702,-2.4964463,-3.821734626,0.585602484,2.573487979,-3.159090463,0,0,0,0,0,0
1.336970992689416,-2.445800814,-3.782850379,0.554414911,2.559910686,-3.114325597,0,0,0,0,0,0
1.369760829415141,-2.366810679,-3.736654356,0.498524925,2.553207593,-3.051732517,0,0,0,0,0,0
1.374177225183143,-2.36679282,-3.741081892,0.496307798,2.557629558,-3.053937356,0,0,0,0,0,0
1.3834053229890628,-2.36596253,-3.749467301,0.491278603,2.566436312,-3.057714915,0,0,0,0,0,0
1.4108032085914686,-2.378963538,-3.789821619,0.484080165,2.600312414,-3.084392578,0,0,0,0,0,0
1.3792611436002495,-2.430352058,-3.809675289,0.525545457,2.594468216,-3.120013673,0,0,0,0,0,0
1.3196151319410028,-2.435250556,-3.754924945,0.557817712,2.537270038,-3.095087751,0,0,0,0,0,0
1.2890335139392677,-2.475675901,-3.76478446,0.593321193,2.526908987,-3.12023018,0,0,0,0,0,0
1.281364114124734,-2.458718316,-3.740166196,0.588677101,2.510765155,-3.099442256,0,0,0,0,0,0
1.3234655544798575,-2.379657476,-3.703155372,0.528095961,2.513310463,-3.041406424,0,0,0,0,0,0
1.3508188425311258,-2.380485235,-3.731368271,0.514833196,2.541093557,-3.055926753,0,0,0,0,0,0
1.3410713142770256,-2.392337916,-3.733515599,0.525633301,2.537293457,-3.062926758,0,0,0,0,0,0
1.3350544676116138,-2.373532546,-3.708656835,0.519239039,2.521855651,-3.041094691,0,0,0,0,0,0
1.3051773825076343,-2.38737846,-3.692613777,0.541100539,2.49889558,-3.039996118,0,0,0,0,0,0
1.3175564040818217,-2.401822033,-3.719477157,0.542132814,2.51851678,-3.060649595,0,0,0,0,0,0
1.327350113999973,-2.452509934,-3.779986526,0.56257991,2.55366832,-3.11624823,0,0,0,0,0,0
1.2889584363765954,-2.473647674,-3.762717613,0.592344619,2.525838025,-3.118182644,0,0,0,0,0,0
1.3221406038265946,-2.428651764,-3.7508538,0.55325558,2.536497202,-3.089752782,0,0,0,0,0,0
1.3706566099735493,-2.391080419,-3.761778207,0.510211905,2.566217409,-3.076429313,0,0,0,0,0,0
1.352380007897857,-2.362479689,-3.714922306,0.505049841,2.533651157,-3.038700998,0,0,0,0,0,0
1.316720041,-2.382180619,-3.698990049,0.532730289,2.507855045,-3.040585334,0,0,0,0,0,0
1.3282644093160751,-2.404222301,-3.732584453,0.537978946,2.530424431,-3.068403377,0,0,0,0,0,0
1.3245847947486293,-2.396413679,-3.721066248,0.535914442,2.522825521,-3.058739963,0,0,0,0,0,0
1.2743415341937128,-2.44411086,-3.718522239,0.584884663,2.496431887,-3.08131655,0,0,0,0,0,0
1.2779937501243743,-2.468676754,-3.746759349,0.595341502,2.512376549,-3.107718051,0,0,0,0,0,0
1.3094412067484544,-2.428656703,-3.738194151,0.559607748,2.523817679,-3.083425427,0,0,0,0,0,0
1.310058106725039,-2.378890225,-3.689024053,0.534416059,2.49954108,-3.033957139,0,0,0,0,0,0
1.3061055517940523,-2.362767487,-3.668957113,0.528330968,2.487531333,-3.0158623,0,0,0,0,0,0
1.2809182217549806,-2.376886787,-3.657888155,0.547984283,2.469403188,-3.017387471,0,0,0,0,0,0
1.2838632098437792,-2.353100819,-3.637045782,0.534618804,2.460454496,-2.9950733,0,0,0,0,0,0
1.306943492,-2.352233397,-3.659262247,0.522644952,2.48310287,-3.005747822,0,0,0,0,0,0
1.299076757215055,-2.415647162,-3.714787561,0.558285202,2.506932159,-3.065217361,0,0,0,0,0,0
1.2948226806314116,-2.442073366,-3.73697335,0.573625343,2.515898015,-3.089523358,0,0,0,0,0,0
1.2985064993586666,-2.394546405,-3.693137269,0.548019953,2.495821884,-3.043841837,0,0,0,0,0,0
1.3133384464691502,-2.359270572,-3.672687183,0.522966063,2.493012815,-3.015978877,0,0,0,0,0,0
1.315879006347359,-2.364732005,-3.680669831,0.524426499,2.498274418,-3.022700918,0,0,0,0,0,0
1.2951051494389592,-2.351479783,-3.646650472,0.528187317,2.470877811,-2.999065127,0,0,0,0,0,0
1.2804142103474774,-2.343850922,-3.624326438,0.531718356,2.452370324,-2.98408868,0,0,0,0,0,0
1.3074922339833348,-2.344109209,-3.65166798,0.518308488,2.479580107,-2.997888595,0,0,0,0,0,0
1.2991947473300156,-2.360798301,-3.66007772,0.530801777,2.479636233,-3.010438011,0,0,0,0,0,0
1.280321270614624,-2.391243031,-3.671634351,0.55546088,2.475977811,-3.031438691,0,0,0,0,0,0
1.2774991989964335,-2.405713201,-3.683329393,0.564107001,2.480414296,-3.044521297,0,0,0,0,0,0
1.300430083422242,-2.383708133,-3.684234932,0.541639025,2.492332508,-3.033971533,0,0,0,0,0,0
1.2956399409564225,-2.348644341,-3.644371542,0.5265022,2.470005741,-2.996507941,0,0,0,0,0,0
1.2729650312586096,-2.309804003,-3.582892807,0.518419486,2.427928919,-2.946348405,0,0,0,0,0,0
1.2783693310956166,-2.308228909,-3.586691656,0.514929789,2.432530493,-2.947460282,0,0,0,0,0,0
1.2618817028312923,-2.356917837,-3.618877065,0.547518067,2.440379384,-2.987897451,0,0,0,0,0,0
1.253165586556422,-2.355054277,-3.608319354,0.550944345,2.43074247,-2.981686816,0,0,0,0,0,0
1.2250281954943958,-2.349512592,-3.57461735,0.562242198,2.399822773,-2.962064971,0,0,0,0,0,0
1.2142194122820487,-2.340564646,-3.554833625,0.563172617,2.384526519,-2.947699136,0,0,0,0,0,0
1.2464108503417999,-2.306520757,-3.552982962,0.530054953,2.399696906,-2.92975186,0,0,0,0,0,0
1.2464547031094932,-2.302206129,-3.548716297,0.527875713,2.3975855,-2.925461213,0,0,0,0,0,0
1.2516485490734968,-2.319891947,-3.571624918,0.534121699,2.411636733,-2.945758433,0,0,0,0,0,0
1.292986025551461,-2.283619602,-3.57670895,0.495316788,2.434847488,-2.930164276,0,0,0,0,0,0
1.2883136280015868,-2.278102833,-3.566504678,0.494894603,2.427409153,-2.922303756,0,0,0,0,0,0
1.2839728238655121,-2.322415878,-3.606462216,0.519221527,2.44521752,-2.964439047,0,0,0,0,0,0
1.2994327794887202,-2.323259402,-3.622742794,0.511913311,2.461087787,-2.973001098,0,0,0,0,0,0
1.2579902345008758,-2.342076679,-3.600149992,0.542043222,2.429070113,-2.971113336,0,0,0,0,0,0
1.2458579692298821,-2.330696577,-3.576687077,0.542419304,2.411272523,-2.953691827,0,0,0,0,0,0
1.266740187816057,-2.26969926,-3.536522749,0.501479536,2.401631469,-2.903111005,0,0,0,0,0,0
1.291823006,-2.232763333,-3.524625472,0.470470164,2.408224239,-2.878694403,0,0,0,0,0,0
1.3147826665085893,-2.236777988,-3.551632197,0.460997661,2.433207432,-2.894205092,0,0,0,0,0,0
1.3032409528069793,-2.265138649,-3.568464657,0.480948848,2.435852805,-2.916801653,0,0,0,0,0,0
1.2838467239877704,-2.275258448,-3.559164267,0.495705862,2.421505495,-2.917211357,0,0,0,0,0,0
1.256209231934902,-2.291132634,-3.547408718,0.517461701,2.401808975,-2.919270676,0,0,0,0,0,0
1.2309308449419922,-2.347868174,-3.5788811,0.558468665,2.404905972,-2.963374637,0,0,0,0,0,0
1.2256810468454078,-2.331083146,-3.556852823,0.552701049,2.391266935,-2.943967984,0,0,0,0,0,0
1.2318923354782558,-2.255509808,-3.487478673,0.511808736,2.359685504,-2.871494241,0,0,0,0,0,0
1.256775229429942,-2.259034379,-3.515855532,0.501129575,2.386315381,-2.887444956,0,0,0,0,0,0
1.301284452160675,-2.272608997,-3.573961588,0.485662272,2.43762302,-2.923285292,0,0,0,0,0,0
1.2878250001925884,-2.254197721,-3.542096843,0.483186361,2.414960922,-2.898147282,0,0,0,0,0,0
1.2217279679559403,-2.238473492,-3.460252877,0.508372762,2.340990422,-2.849363184,0,0,0,0,0,0
1.2054943092245554,-2.197896169,-3.403472582,0.49620093,2.304483445,-2.800684375,0,0,0,0,0,0
1.1876579345116152,-2.247504501,-3.43526392,0.529923283,2.311460927,-2.84138421,0,0,0,0,0,0
1.1617482043862823,-2.313019793,-3.474869781,0.575635794,2.318308993,-2.893944787,0,0,0,0,0,0
1.2013122948156723,-2.253465813,-3.454847699,0.526076759,2.328079997,-2.854156756,0,0,0,0,0,0
1.2645256855961027,-2.167843232,-3.432409307,0.451658773,2.348467496,-2.800126269,0,0,0,0,0,0
1.2914096677732692,-2.130287828,-3.421773726,0.41943908,2.356591697,-2.776030777,0,0,0,0,0,0
1.2525008700556692,-2.14504319,-3.397639616,0.44627116,2.325070243,-2.771341403,0,0,0,0,0,0
1.2288867198259505,-2.162215338,-3.391192833,0.466664309,2.310039777,-2.776704086,0,0,0,0,0,0
1.2302785273047077,-2.165131877,-3.395489611,0.467426675,2.312884069,-2.780310744,0,0,0,0,0,0
1.2213439445325271,-2.197981968,-3.419396955,0.488319012,2.32037045,-2.808689462,0,0,0,0,0,0
1.2179960660989928,-2.240873826,-3.458960463,0.51143888,2.338478265,-2.849917145,0,0,0,0,0,0
1.1915409815677722,-2.221154386,-3.412787826,0.514806702,2.302164404,-2.816971106,0,0,0,0,0,0
1.1824103473641754,-2.158679723,-3.341171701,0.488134688,2.261791024,-2.749925712,0,0,0,0,0,0
1.2074329668776513,-2.110581832,-3.318131942,0.451574433,2.262782455,-2.714356887,0,0,0,0,0,0
1.213382558709448,-2.096161024,-3.309643031,0.441389233,2.261512795,-2.702902028,0,0,0,0,0,0
1.1855228120150303,-2.052404544,-3.237982055,0.433440866,2.211752434,-2.6451933,0,0,0,0,0,0
1.1810290471968723,-2.067429543,-3.248535182,0.443200248,2.214782114,-2.657982362,0,0,0,0,0,0
1.1837736718611107,-2.163659479,-3.347504922,0.489942904,2.265639297,-2.755582201,0,0,0,0,0,0
1.185393930507144,-2.196306184,-3.38176289,0.505456127,2.28357841,-2.789034537,0,0,0,0,0,0
1.1905388410461635,-2.158571909,-3.349172964,0.484016534,2.269855902,-2.753872436,0,0,0,0,0,0
1.174762689717126,-2.115325346,-3.290160132,0.470281328,2.232461411,-2.702742739,0,0,0,0,0,0
1.1916072077316378,-2.088550521,-3.280244616,0.448471657,2.235925912,-2.684397569,0,0,0,0,0,0
1.233356058552233,-2.062862677,-3.296252452,0.414753309,2.264804255,-2.679557565,0,0,0,0,0,0
1.2435457926729057,-2.021293652,-3.26486545,0.38887393,2.254205621,-2.643079551,0,0,0,0,0,0
1.2450868795668455,-2.020115963,-3.265294455,0.387514542,2.255190667,-2.642705209,0,0,0,0,0,0
1.2523127878947202,-2.041274791,-3.293679546,0.394481001,2.272996167,-2.667477168,0,0,0,0,0,0
1.1710920906582012,-2.082193592,-3.25334677,0.455550751,2.21221943,-2.667770181,0,0,0,0,0,0
1.114153214486211,-2.101188837,-3.215380495,0.493517811,2.164766855,-2.658284666,0,0,0,0,0,0
1.1470785931624912,-2.086767287,-3.233905442,0.469844347,2.190492017,-2.660336364,0,0,0,0,0,0
1.167697838039221,-2.060885423,-3.228675181,0.446593793,2.19818651,-2.644780302,0,0,0,0,0,0
1.1885640493991816,-2.045466439,-3.234107475,0.428451195,2.211335762,-2.639786957,0,0,0,0,0,0
1.2036805349930881,-2.028430965,-3.232213434,0.412375215,2.217946985,-2.630322199,0,0,0,0,0,0
1.2019231459362618,-2.024627714,-3.226660979,0.411352284,2.214292062,-2.625644346,0,0,0,0,0,0
1.1711338505921114,-2.048751988,-3.219941913,0.438809069,2.195537882,-2.63434695,0,0,0,0,0,0
1.1618919407689774,-2.073998849,-3.235957843,0.456053454,2.198924892,-2.654978346,0,0,0,0,0,0
1.1441084166815363,-2.109740362,-3.253946713,0.482815973,2.199027565,-2.681843538,0,0,0,0,0,0
1.1196721653320039,-2.102765246,-3.222518034,0.49154654,2.171095099,-2.66264164,0,0,0,0,0,0
1.1258708331859602,-2.058539162,-3.184457787,0.466334165,2.15516431,-2.621498475,0,0,0,0,0,0
1.1372067394087813,-2.069205557,-3.206462765,0.465999409,2.171834752,-2.637834161,0,0,0,0,0,0
1.1933715242032303,-2.102891343,-3.296355324,0.454759909,2.244863424,-2.699623333,0,0,0,0,0,0
1.2053800026892605,-2.116004885,-3.321474907,0.455312441,2.263427455,-2.718739896,0,0,0,0,0,0
1.1870814684716258,-2.14583453,-3.332986284,0.479376531,2.260033876,-2.739410407,0,0,0,0,0,0
1.2143638141078836,-2.175738449,-3.390192955,0.480687318,2.302278385,-2.782965702,0,0,0,0,0,0
1.2225876767089774,-2.206775038,-3.429451044,0.492093681,2.32601936,-2.818113041,0,0,0,0,0,0
1.1795488104154013,-2.233264445,-3.412884095,0.526857817,2.296216453,-2.82307427,0,0,0,0,0,0
1.1698944145344792,-2.234054601,-3.404039397,0.532080093,2.286966906,-2.819046999,0,0,0,0,0,0
1.1964517813919855,-2.214564587,-3.411095645,0.509056403,2.303773713,-2.812830116,0,0,0,0,0,0
1.1725369669905026,-2.224542124,-3.397151607,0.526002578,2.284844287,-2.810846865,0,0,0,0,0,0
1.1598424691987899,-2.262490543,-3.422392331,0.551324037,2.2911174,-2.842441437,0,0,0,0,0,0
1.1777416840263029,-2.269030502,-3.446833394,0.545644409,2.312287539,-2.857931948,0,0,0,0,0,0
1.1984867532098178,-2.27622697,-3.474770173,0.538870108,2.336628463,-2.875498571,0,0,0,0,0,0
1.190862508598735,-2.349866263,-3.540770385,0.579501877,2.365816447,-2.945318324,0,0,0,0,0,0
1.1750758384453617,-2.380357631,-3.555487688,0.602640896,2.365281763,-2.96792266,0,0,0,0,0,0
1.2102784122687535,-2.354831009,-3.565159464,0.572276299,2.387718938,-2.959995237,0,0,0,0,0,0
1.2331163078138725,-2.346310521,-3.57949033,0.556597107,2.406303319,-2.962900425,0,0,0,0,0,0
1.236251702742947,-2.336597954,-3.572951886,0.550173126,2.404601795,-2.95477492,0,0,0,0,0,0
1.2470344485322458,-2.378098496,-3.625209387,0.565532024,2.436121918,-3.001653941,0,0,0,0,0,0
1.2779175849708793,-2.411023938,-3.688984036,0.566553177,2.48345081,-3.050003987,0,0,0,0,0,0
1.3135616615558836,-2.392959647,-3.706583466,0.539698993,2.510072564,-3.049771556,0,0,0,0,0,0
1.350059994924827,-2.374893964,-3.725069279,0.512416985,2.537564637,-3.049981621,0,0,0,0,0,0
1.3161442756270734,-2.419294905,-3.735544982,0.551575315,2.525844629,-3.077419944,0,0,0,0,0,0
1.226745540328399,-2.449246733,-3.676055889,0.611250596,2.451400714,-3.062651311,0,0,0,0,0,0
1.257245595426807,-2.401260202,-3.658571017,0.572007303,2.457908306,-3.029915609,0,0,0,0,0,0
1.2895831553882562,-2.393342957,-3.682995971,0.551879901,2.486289563,-3.038169464,0,0,0,0,0,0
1.2909212727920014,-2.396502918,-3.687505291,0.552790823,2.489213282,-3.042004105,0,0,0,0,0,0
1.3091408490266636,-2.373398659,-3.682631996,0.532128905,2.495886422,-3.028015327,0,0,0,0,0,0
1.305421835896106,-2.399650794,-3.705117618,0.547114479,2.505269727,-3.052384206,0,0,0,0,0,0
1.306383826507854,-2.447190907,-3.753610918,0.57040354,2.529997372,-3.100400913,0,0,0,0,0,0
1.2857433105354514,-2.458263544,-3.744073844,0.586260117,2.514908577,-3.101168694,0,0,0,0,0,0
1.2734230880052528,-2.445210347,-3.718726083,0.58589363,2.496074586,-3.081968215,0,0,0,0,0,0
1.2920067145342222,-2.428486801,-3.720577791,0.568240043,2.506292253,-3.074532296,0,0,0,0,0,0
1.3183467023543192,-2.427154906,-3.74559818,0.554404102,2.531972441,-3.086376543,0,0,0,0,0,0
1.328839424483573,-2.407497047,-3.736410131,0.539328811,2.532624778,-3.071953589,0,0,0,0,0,0
1.3183777774802905,-2.39519768,-3.713619697,0.538409951,2.515998737,-3.054408689,0,0,0,0,0,0
1.3258023853045457,-2.420135437,-3.745992032,0.547166526,2.535897209,-3.083063735,0,0,0,0,0,0
1.3382073956108762,-2.447260887,-3.785539709,0.554526746,2.561873552,-3.116400298,0,0,0,0,0,0
1.3309908684242966,-2.479504087,-3.810584551,0.574256609,2.57078771,-3.145044319,0,0,0,0,0,0
1.2984193948495006,-2.480333547,-3.778822801,0.590957076,2.538621098,-3.129578174,0,0,0,0,0,0
1.2856988993982428,-2.460990754,-3.746761729,0.587645927,2.516230314,-3.103876241,0,0,0,0,0,0
1.3440895776259099,-2.436306856,-3.780449802,0.546108639,2.56226969,-3.108378329,0,0,0,0,0,0
1.3750798233097954,-2.425293322,-3.800436496,0.525106749,2.587758159,-3.112864909,0,0,0,0,0,0
1.3497409419144704,-2.448839585,-3.798664418,0.549549322,2.57420268,-3.123752002,0,0,0,0,0,0
1.3643933921344702,-2.442042386,-3.80653642,0.538824497,2.585464906,-3.124289403,0,0,0,0,0,0
1.3583922791361092,-2.417428401,-3.775928244,0.529518061,2.567160262,-3.096678323,0,0,0,0,0,0
1.3075812700474663,-2.454209187,-3.761901586,0.573313958,2.534741428,-3.108055386,0,0,0,0,0,0
1.2793238140259708,-2.471645671,-3.751077023,0.596160929,2.515200419,-3.111361347,0,0,0,0,0,0
1.287730821553951,-2.4094636,-3.697274438,0.560866389,2.49250263,-3.053369019,0,0,0,0,0,0
1.3133423248333673,-2.372178573,-3.685593904,0.529418124,2.499468114,-3.028886238,0,0,0,0,0,0
1.3473237950593948,-2.422587004,-3.769971206,0.537631604,2.558647501,-3.096279105,0,0,0,0,0,0
1.3914551365387369,-2.426032416,-3.81755606,0.51728864,2.604505598,-3.121794238,0,0,0,0,0,0
1.3844134822431178,-2.413631648,-3.798107735,0.514609083,2.591260609,-3.105869691,0,0,0,0,0,0
1.338181654006132,-2.44361554,-3.781859,0.552716943,2.560020327,-3.11273727,0,0,0,0,0,0
1.325572187358133,-2.436484009,-3.762121062,0.555455911,2.543846624,-3.099302535,0,0,0,0,0,0
1.3148400389680603,-2.48229195,-3.797198291,0.583725956,2.556019165,-3.139745121,0,0,0,0,0,0
1.289559307936693,-2.482781776,-3.772433897,0.596611234,2.530996603,-3.127607837,0,0,0,0,0,0
1.3310268661828677,-2.424541948,-3.755652182,0.546757541,2.543339524,-3.090097065,0,0,0,0,0,0
1.3725182229577109,-2.40638249,-3.77896521,0.516932134,2.575741717,-3.09267385,0,0,0,0,0,0
1.3646644369703842,-2.390585026,-3.755328144,0.512960295,2.559996291,-3.072956585,0,0,0,0,0,0
1.3415375342740643,-2.375502442,-3.717144364,0.516982454,2.529340949,-3.046323403,0,0,0,0,0,0
1.3267647293275058,-2.432462182,-3.759317451,0.552848726,2.54304109,-3.095889816,0,0,0,0,0,0
1.300716783,-2.468128609,-3.768940902,0.583705913,2.534828843,-3.118534755,0,0,0,0,0,0
1.2834562865338943,-2.471652549,-3.755198072,0.594098131,2.519327179,-3.11342531,0,0,0,0,0,0
1.304408011291314,-2.463539756,-3.767991784,0.579565872,2.536199898,-3.11576577,0,0,0,0,0,0
1.334449934122272,-2.423254972,-3.757778914,0.544402519,2.546114424,-3.090516943,0,0,0,0,0,0
1.3456580490593726,-2.415427307,-3.761197795,0.534884629,2.553427922,-3.088312551,0,0,0,0,0,0
1.3434109965128866,-2.431191013,-3.77468752,0.543890008,2.559049258,-3.102939266,0,0,0,0,0,0
1.3767341292899693,-2.412038166,-3.788860551,0.517652018,2.58279734,-3.100449358,0,0,0,0,0,0
1.379485327840012,-2.404199195,-3.783775778,0.512356934,2.581630553,-3.093987487,0,0,0,0,0,0
1.3404328030434602,-2.427865041,-3.76836687,0.543716119,2.554399836,-3.098115955,0,0,0,0,0,0
1.338742675538968,-2.485918168,-3.824742523,0.573587746,2.581742599,-3.155330345,0,0,0,0,0,0
1.3276683021932507,-2.513712748,-3.841438199,0.593022223,2.58455325,-3.177575473,0,0,0,0,0,0
1.3218825922545205,-2.456652824,-3.778571982,0.567385116,2.550227287,-3.117612403,0,0,0,0,0,0
1.3362325634415495,-2.398076493,-3.734399402,0.530921965,2.535315983,-3.066237948,0,0,0,0,0,0
1.355828959491109,-2.387257054,-3.743184459,0.515714047,2.549506709,-3.065220756,0,0,0,0,0,0
1.3773368778552224,-2.383384756,-3.760793147,0.503023939,2.569065012,-3.072088951,0,0,0,0,0,0
1.3736783670288757,-2.395901145,-3.76968193,0.511111389,2.571680148,-3.082791537,0,0,0,0,0,0
1.351896630870771,-2.422650843,-3.774632817,0.535377106,2.563264724,-3.09864183,0,0,0,0,0,0
1.3055674467519478,-2.460174053,-3.76579305,0.577303303,2.535680248,-3.112983552,0,0,0,0,0,0
1.2880377757724064,-2.468987107,-3.757122534,0.590474666,2.522580155,-3.113054821,0,0,0,0,0,0
1.306554618044233,-2.450634298,-3.757296088,0.57203984,2.531925353,-3.103965193,0,0,0,0,0,0
1.3192456027912045,-2.436243094,-3.755589188,0.558498745,2.537417395,-3.095916141,0,0,0,0,0,0
1.3617554928511073,-2.406432411,-3.768312174,0.522338459,2.565033834,-3.087372293,0,0,0,0,0,0
1.3500730104317473,-2.407524039,-3.757704819,0.528725514,2.553888915,-3.082614429,0,0,0,0,0,0
1.314168007065862,-2.420698759,-3.734959916,0.553265376,2.524563962,-3.077829338,0,0,0,0,0,0
1.3444392908875966,-2.41721641,-3.761737519,0.53638856,2.553088405,-3.089476965,0,0,0,0,0,0
1.3325513353155876,-2.422119922,-3.75474685,0.544784294,2.543649093,-3.088433386,0,0,0,0,0,0
1.3228272754556227,-2.457763593,-3.780667231,0.567468159,2.551747253,-3.119215412,0,0,0,0,0,0
1.356235265732594,-2.477481379,-3.833821984,0.560623057,2.595028625,-3.155651681,0,0,0,0,0,0
1.389602394533353,-2.431864063,-3.821554559,0.521130834,2.605578477,-3.126709311,0,0,0,0,0,0
1.3768935671787172,-2.410280637,-3.787249203,0.516693535,2.582071385,-3.09876492,0,0,0,0,0,0
1.2930669094743366,-2.438536767,-3.731713218,0.572734929,2.512390064,-3.085124993,0,0,0,0,0,0
1.266038568786581,-2.438948444,-3.70507607,0.586454938,2.48555732,-3.072012257,0,0,0,0,0,0
1.3136793933867452,-2.422371411,-3.736119553,0.554346009,2.524899473,-3.079245482,0,0,0,0,0,0
1.3205011201864347,-2.440929092,-3.761512148,0.560213986,2.541006634,-3.10122062,0,0,0,0,0,0
1.3317442664766574,-2.476463042,-3.808287416,0.572359388,2.570015841,-3.142375229,0,0,0,0,0,0
1.3422606708113067,-2.498738087,-3.841104548,0.578238708,2.591682609,-3.169921317,0,0,0,0,0,0
1.3342514922504496,-2.460699275,-3.795038925,0.563223891,2.564645208,-3.1278691,0,0,0,0,0,0
1.3256244170211962,-2.420433165,-3.746127341,0.547404374,2.535875879,-3.083280253,0,0,0,0,0,0
1.3137595203114207,-2.409705766,-3.723531036,0.547973123,2.518645278,-3.066618401,0,0,0,0,0,0
1.2963461362453272,-2.397503101,-3.693915097,0.550578482,2.495130617,-3.045709099,0,0,0,0,0,0
1.3136473209225659,-2.361134816,-3.6748684,0.523743748,2.494257861,-3.018001608,0,0,0,0,0,0
1.3451964041089624,-2.407853111,-3.753134069,0.531328354,2.549165236,-3.08049359,0,0,0,0,0,0
1.3240043553868253,-2.495100919,-3.819157656,0.585548282,2.571581006,-3.157129287,0,0,0,0,0,0
1.3067744295539707,-2.516808324,-3.823653704,0.605016947,2.565214067,-3.170231014,0,0,0,0,0,0
1.312854633342853,-2.524438831,-3.837381405,0.605792099,2.575118019,-3.180910118,0,0,0,0,0,0
1.330736751127926,-2.480816236,-3.811633753,0.575039742,2.571185252,-3.146224994,0,0,0,0,0,0
1.3255882680710471,-2.444164316,-3.769845252,0.559288024,2.54771676,-3.107004784,0,0,0,0,0,0
1.304433561378715,-2.477371643,-3.781919618,0.586469041,2.54317659,-3.129645631,0,0,0,0,0,0
1.3189362535770424,-2.419549061,-3.738551299,0.550306404,2.528743776,-3.07905018,0,0,0,0,0,0
1.3755287611843976,-2.390291431,-3.765891308,0.507381335,2.570710035,-3.07809137,0,0,0,0,0,0
1.4094763355686861,-2.424118069,-3.833685322,0.507320867,2.621580829,-3.128901696,0,0,0,0,0,0
1.348012528307441,-2.460904975,-3.808993243,0.556446224,2.578502886,-3.134949109,0,0,0,0,0,0
1.3066987371340153,-2.490503388,-3.797310491,0.591902326,2.552004614,-3.143906939,0,0,0,0,0,0
1.3139366143460305,-2.464392927,-3.778411018,0.575228156,2.546173816,-3.121401973,0,0,0,0,0,0
1.3298507251625185,-2.440402642,-3.770321107,0.555275959,2.550085916,-3.105361874,0,0,0,0,0,0
1.3291459648452748,-2.442073869,-3.771308077,0.556463952,2.550227021,-3.106690973,0,0,0,0,0,0
1.327186683130692,-2.43841032,-3.765679782,0.555611818,2.546433233,-3.102045051,0,0,0,0,0,0
1.3399106669859433,-2.425299513,-3.765249396,0.542694423,2.552580031,-3.095274454,0,0,0,0,0,0
1.330393675706323,-2.449015036,-3.779457383,0.55931068,2.554925529,-3.11423621,0,0,0,0,0,0
1.333139273704058,-2.509990325,-3.84321061,0.588425525,2.588174942,-3.176600467,0,0,0,0,0,0
1.3110253428027734,-2.544050884,-3.855165579,0.616512771,2.583095461,-3.199608231,0,0,0,0,0,0
1.300340596,-2.458949588,-3.759364036,0.579304496,2.529852316,-3.109156812,0,0,0,0,0,0
1.335173006326572,-2.417675356,-3.752921629,0.541251175,2.544047317,-3.085298492,0,0,0,0,0,0
1.3335315335498972,-2.446400017,-3.780019911,0.556434242,2.556775722,-3.113209964,0,0,0,0,0,0
1.307881136568866,-2.436041499,-3.743996543,0.564080181,2.52593884,-3.090019021,0,0,0,0,0,0
1.328603731354231,-2.417834983,-3.746506847,0.544615626,2.537555289,-3.082170915,0,0,0,0,0,0
1.341834021301855,-2.456967909,-3.798872604,0.557566944,2.570353312,-3.127920256,0,0,0,0,0,0
1.3199214135400643,-2.496920274,-3.816913308,0.58849943,2.568417361,-3.156916791,0,0,0,0,0,0
1.2798478105953524,-2.516233974,-3.796141399,0.618193082,2.537994605,-3.156187687,0,0,0,0,0,0
1.2891988440467195,-2.495771055,-3.785019627,0.603286105,2.537109236,-3.140395341,0,0,0,0,0,0
1.3332409996219285,-2.453650547,-3.786983001,0.560204774,2.560112,-3.120316774,0,0,0,0,0,0
1.3280435247182911,-2.429785621,-3.757939004,0.550871048,2.542991264,-3.093862312,0,0,0,0,0,0
1.3238454281251477,-2.442784271,-3.766751085,0.559469422,2.545298257,-3.104767678,0,0,0,0,0,0
1.3244962724103073,-2.466174094,-3.790771195,0.570838911,2.557633734,-3.128472645,0,0,0,0,0,0
1.345279418515215,-2.469392734,-3.814713624,0.562056658,2.579996521,-3.142053179,0,0,0,0,0,0
1.3623334744521562,-2.488790113,-3.851189492,0.563228319,2.606761483,-3.169989803,0,0,0,0,0,0
1.3427393432939074,-2.53560127,-3.878409462,0.596430963,2.610574403,-3.207005366,0,0,0,0,0,0
1.2813270211231835,-2.538515698,-3.819902892,0.628594339,2.550614956,-3.179209295,0,0,0,0,0,0
1.3171948611760451,-2.494895391,-3.812182523,0.588850265,2.564688692,-3.153538957,0,0,0,0,0,0
1.3820018112076529,-2.442735409,-3.824823731,0.530366799,2.603412771,-3.13377957,0,0,0,0,0,0
1.360796568,-2.392545619,-3.753391193,0.515874526,2.55709388,-3.072968406,0,0,0,0,0,0
1.3488427892301835,-2.370556461,-3.719457767,0.510856836,2.534150278,-3.045007114,0,0,0,0,0,0
1.340153578485519,-2.447646312,-3.787911285,0.553746367,2.564032432,-3.117778799,0,0,0,0,0,0
1.323247875888265,-2.499881986,-3.823199198,0.588317055,2.573223537,-3.161540592,0,0,0,0,0,0
1.2981297368014058,-2.513677693,-3.811845462,0.607773978,2.554987599,-3.162761578,0,0,0,0,0,0
1.2936454227495262,-2.544015768,-3.837754626,0.625185172,2.565700024,-3.190885197,0,0,0,0,0,0
1.3116705776175945,-2.516363423,-3.828124375,0.602346422,2.569897476,-3.172243899,0,0,0,0,0,0
1.337462756647249,-2.485382998,-3.822932712,0.573960121,2.580197734,-3.154157855,0,0,0,0,0,0
1.356978838189037,-2.464882149,-3.821951176,0.553951655,2.589465007,-3.143416663,0,0,0,0,0,0
1.3217250653540833,-2.448818413,-3.770593221,0.563546674,2.546159143,-3.109705817,0,0,0,0,0,0
1.3213187933202624,-2.443428053,-3.764827799,0.56105463,2.543073296,-3.104127926,0,0,0,0,0,0
1.3463341301741512,-2.452334164,-3.798763331,0.553000017,2.57254873,-3.125548747,0,0,0,0,0,0
1.3184056882206947,-2.49158681,-3.810064205,0.586590561,2.564234946,-3.150825507,0,0,0,0,0,0
1.2859375339955974,-2.540083221,-3.826068749,0.627072843,2.556003141,-3.183075985,0,0,0,0,0,0
1.2868959351105869,-2.533549816,-3.820494151,0.623326941,2.553695043,-3.177021984,0,0,0,0,0,0
1.290809631548693,-2.495690832,-3.786597399,0.6024406,2.538703515,-3.141144116,0,0,0,0,0,0
1.2811998358821952,-2.497570326,-3.778851036,0.608185245,2.530025436,-3.138210681,0,0,0,0,0,0
1.2793319502467493,-2.507413431,-3.786803742,0.614040741,2.533067846,-3.147108587,0,0,0,0,0,0
1.279633687944533,-2.528440472,-3.808141062,0.624403392,2.543887375,-3.168290767,0,0,0,0,0,0
1.2830980186253924,-2.534154618,-3.817316385,0.625528299,2.550207202,-3.175735501,0,0,0,0,0,0
1.2665845625878438,-2.530108692,-3.796766589,0.631762065,2.531675576,-3.163437641,0,0,0,0,0,0
1.262763400805744,-2.552911373,-3.81576092,0.645073986,2.539262161,-3.184336147,0,0,0,0,0,0
1.2750682276522172,-2.578997993,-3.854139656,0.651964883,2.564603942,-3.216568825,0,0,0,0,0,0
1.2884832397339463,-2.562804343,-3.851362143,0.637160552,2.569922691,-3.207083243,0,0,0,0,0,0
1.242244761583423,-2.550762439,-3.793084396,0.654258839,2.517664579,-3.171923418,0,0,0,0,0,0
1.2171976607271153,-2.555828885,-3.773125369,0.669315612,2.495161515,-3.164477127,0,0,0,0,0,0
1.2472733097551774,-2.508410056,-3.755788544,0.630568373,2.501530927,-3.1320993,0,0,0,0,0,0
1.2846295512430652,-2.469537648,-3.754259626,0.592454048,2.519444589,-3.111898637,0,0,0,0,0,0
1.2679041431738107,-2.495421314,-3.763419887,0.613758585,2.515662015,-3.129420601,0,0,0,0,0,0
1.2287429802973924,-2.550313179,-3.779156129,0.6607851,2.503949555,-3.164734654,0,0,0,0,0,0
1.1582104142481713,-2.611297265,-3.769558184,0.726543425,2.463884299,-3.190427724,0,0,0,0,0,0
1.1033455783439314,-2.577814496,-3.681229449,0.737234459,2.392287514,-3.129521972,0,0,0,0,0,0
1.1452470025598336,-2.515772196,-3.661109151,0.685262597,2.403178077,-3.088440673,0,0,0,0,0,0
1.1546884043229158,-2.516463687,-3.671242225,0.680887641,2.412965314,-3.093852956,0,0,0,0,0,0
1.1260084054769928,-2.530521072,-3.656631444,0.702256333,2.391319925,-3.093576258,0,0,0,0,0,0
1.1135403014022487,-2.53307946,-3.64670254,0.709769579,2.380121421,-3.089891,0,0,0,0,0,0
1.1250295906906025,-2.520055975,-3.64515838,0.697513192,2.385093986,-3.082607177,0,0,0,0,0,0
1.1612624474483817,-2.551353138,-3.712678803,0.695045345,2.436970625,-3.13201597,0,0,0,0,0,0
1.1911318277254528,-2.595795563,-3.787015235,0.702331868,2.489073531,-3.191405399,0,0,0,0,0,0
1.204737576423853,-2.566903986,-3.771735017,0.681083205,2.488236297,-3.169319501,0,0,0,0,0,0
1.2561384915096576,-2.530473536,-3.786688605,0.637167522,2.521413548,-3.15858107,0,0,0,0,0,0
1.3149855889520943,-2.477442063,-3.792494392,0.581228237,2.55373999,-3.134968227,0,0,0,0,0,0
1.2879609291813665,-2.452221113,-3.740221889,0.582130092,2.514091409,-3.096221501,0,0,0,0,0,0
1.2295916421033766,-2.478663018,-3.708317615,0.624535688,2.468954629,-3.093490317,0,0,0,0,0,0
1.1901518149455441,-2.503040922,-3.693277313,0.656444554,2.441714564,-3.098159118,0,0,0,0,0,0
1.208561152029159,-2.517017388,-3.725678584,0.654228118,2.467119868,-3.121347986,0,0,0,0,0,0
1.2102570438858384,-2.558733069,-3.769062398,0.674238013,2.489659721,-3.163897733,0,0,0,0,0,0
1.1744403019442742,-2.572212446,-3.746715329,0.698886072,2.460577815,-3.159463887,0,0,0,0,0,0
1.198569633782723,-2.523488653,-3.722116814,0.66245951,2.460343224,-3.122802734,0,0,0,0,0,0
1.249796767105811,-2.494068187,-3.743914905,0.62213571,2.496855836,-3.118991546,0,0,0,0,0,0
1.2786100803691964,-2.498948061,-3.777652177,0.61016899,2.528131129,-3.138300119,0,0,0,0,0,0
1.2931240119554674,-2.496562035,-3.789795267,0.601719011,2.541459639,-3.143178651,0,0,0,0,0,0
1.3034110425737049,-2.447698577,-3.751204576,0.572143767,2.527307809,-3.099451577,0,0,0,0,0,0
1.3125762339018192,-2.444427812,-3.757060864,0.565925789,2.534818549,-3.100744338,0,0,0,0,0,0
1.2965377998475405,-2.527210156,-3.823796527,0.615336178,2.560167163,-3.175503341,0,0,0,0,0,0
1.2803440793615266,-2.572070617,-3.852464196,0.645863269,2.566404138,-3.212267407,0,0,0,0,0,0
1.2915348045133075,-2.531318564,-3.822893134,0.61989188,2.557213969,-3.177105849,0,0,0,0,0,0
1.3230003111625936,-2.470657297,-3.793709574,0.573828493,2.558354943,-3.132183436,0,0,0,0,0,0
1.3506073082301266,-2.457055062,-3.807762636,0.553223877,2.579184972,-3.132408849,0,0,0,0,0,0
1.3548805771880765,-2.477666107,-3.832645494,0.561392765,2.593763036,-3.155155801,0,0,0,0,0,0
1.300947077199578,-2.494750119,-3.795786124,0.596901521,2.548366601,-3.145268122,0,0,0,0,0,0
1.294548509061979,-2.479232207,-3.773873521,0.592341849,2.534211015,-3.126552864,0,0,0,0,0,0
1.356228478504516,-2.45836611,-3.81466707,0.551068816,2.585447774,-3.13651659,0,0,0,0,0,0
1.3467266737249204,-2.503370196,-3.850183351,0.578321761,2.598455012,-3.176776773,0,0,0,0,0,0
1.2923435988183376,-2.521665198,-3.814104898,0.6146608,2.553224249,-3.167885048,0,0,0,0,0,0
1.3012978818486185,-2.480970437,-3.782326877,0.589836277,2.541812379,-3.131648657,0,0,0,0,0,0
1.3466518461724157,-2.48601618,-3.832742717,0.569682167,2.589697282,-3.159379449,0,0,0,0,0,0
1.3607508750596657,-2.461833461,-3.82269954,0.550541293,2.591725207,-3.142266501,0,0,0,0,0,0
1.3605478079776976,-2.415788132,-3.776398171,0.527620162,2.568472989,-3.096093151,0,0,0,0,0,0
1.3334885741120734,-2.427592093,-3.761135274,0.54705176,2.547311924,-3.094363684,0,0,0,0,0,0
1.324870260562087,-2.492414718,-3.817403896,0.583772229,2.571137078,-3.154909307,0,0,0,0,0,0
1.323047051283257,-2.560043781,-3.883156198,0.618498365,2.603101625,-3.22159999,0,0,0,0,0,0
1.3224808504866536,-2.550462569,-3.87299552,0.613990859,2.597738185,-3.211729045,0,0,0,0,0,0
1.346713102436848,-2.488047754,-3.834824588,0.570667326,2.590768845,-3.161436171,0,0,0,0,0,0
1.3464686509842088,-2.440859249,-3.787407901,0.547195299,2.566938276,-3.114133575,0,0,0,0,0,0
1.312052393,-2.435535988,-3.747701971,0.561741798,2.529877182,-3.09161898,0,0,0,0,0,0
1.3272030939966486,-2.459796432,-3.7871088,0.566296669,2.557155947,-3.123452616,0,0,0,0,0,0
1.3541487592391381,-2.478447787,-3.832689514,0.562149514,2.593419136,-3.15556865,0,0,0,0,0,0
1.3462105295780018,-2.470965786,-3.817252782,0.562377628,2.581731656,-3.144109284,0,0,0,0,0,0
1.3329815992804963,-2.510760319,-3.843814361,0.58888936,2.58839798,-3.17728734,0,0,0,0,0,0
1.3167152036549912,-2.575801272,-3.892583022,0.629543034,2.604649113,-3.234192147,0,0,0,0,0,0
1.3336565888808705,-2.54027626,-3.873980482,0.603309836,2.603818536,-3.207128371,0,0,0,0,0,0
1.3450176368294877,-2.45941053,-3.804457419,0.557196447,2.574737528,-3.131933975,0,0,0,0,0,0
1.3598001134788227,-2.421021886,-3.78087522,0.530610886,2.570337667,-3.100948553,0,0,0,0,0,0
1.390313031581416,-2.449557934,-3.839927344,0.529622451,2.615120188,-3.144742639,0,0,0,0,0,0
1.385545085385616,-2.508759222,-3.894371832,0.561607068,2.639958459,-3.201565527,0,0,0,0,0,0
1.3798716937982318,-2.519608643,-3.899568387,0.569868475,2.639720041,-3.209588515,0,0,0,0,0,0
1.3781583130328663,-2.564322643,-3.942534593,0.593082165,2.660346453,-3.253428618,0,0,0,0,0,0
1.4048473695322727,-2.575974565,-3.980895217,0.585563598,2.692871294,-3.278434891,0,0,0,0,0,0
1.407257110664745,-2.510140213,-3.917507366,0.551441551,2.662382239,-3.21382379,0,0,0,0,0,0
1.3715232906390407,-2.486415735,-3.858015602,0.557446222,2.614769446,-3.172215668,0,0,0,0,0,0
1.3409396261648028,-2.452949996,-3.793958264,0.556005185,2.567448945,-3.12345413,0,0,0,0,0,0
1.298276711802448,-2.413298612,-3.711643391,0.55751095,2.504960051,-3.062471002,0,0,0,0,0,0
1.3103721906485173,-2.34525443,-3.655686249,0.517441119,2.48302922,-3.000470339,0,0,0,0,0,0
1.3333719420243746,-2.245720854,-3.579138171,0.456174456,2.456255057,-2.912429513,0,0,0,0,0,0
1.3109927690107182,-2.211663695,-3.522727783,0.450335463,2.416860276,-2.867195739,0,0,0,0,0,0
1.2522522862545757,-2.262670277,-3.514996523,0.505208995,2.383624404,-2.8888334,0,0,0,0,0,0
1.1140672915852607,-2.287400617,-3.401543978,0.586666663,2.257805635,-2.844472297,0,0,0,0,0,0
0.9320027301826465,-2.266525989,-3.198612665,0.667261629,2.065307698,-2.732569327,0,0,0,0,0,0
0.771719252,-2.303613131,-3.075373478,0.765946939,1.923546365,-2.689493305,0,0,0,0,0,0
0.6044687400458753,-2.37357072,-2.97807934,0.88455099,1.79127404,-2.67582503,0,0,0,0,0,0
0.38260588774977466,-2.480899912,-2.863606117,1.049147012,1.623106002,-2.672253014,0,0,0,0,0,0
0.2550256446854948,-2.512553798,-2.767711598,1.128764077,1.511368622,-2.640132698,0,0,0,0,0,0
0.3069177655538822,-2.373686593,-2.680677426,1.033384414,1.493797596,-2.527182009,0,0,0,0,0,0
0.3693507357201695,-2.274004422,-2.643421258,0.952326843,1.506385997,-2.45871284,0,0,0,0,0,0
0.476238601,-2.249565747,-2.725894267,0.886663573,1.601066434,-2.487730007,0,0,0,0,0,0
0.6430200103151261,-2.160427424,-2.803491167,0.758703707,1.723255589,-2.481959295,0,0,0,0,0,0
0.8265775235291327,-2.072988528,-2.89965176,0.623205502,1.863114642,-2.486320144,0,0,0,0,0,0
1.0427774943207049,-2.007046671,-3.049932239,0.482134588,2.046354867,-2.528489455,0,0,0,0,0,0
1.2188554069061588,-2.029940946,-3.248869977,0.405542769,2.233862692,-2.639405462,0,0,0,0,0,0
1.3484554602675445,-2.065785193,-3.414338482,0.358664866,2.381396971,-2.740061837,0,0,0,0,0,0
1.4571438119551068,-2.124703052,-3.581930943,0.33377962,2.519537377,-2.853316997,0,0,0,0,0,0
1.4837825814721697,-2.280442215,-3.76430253,0.398329817,2.624042556,-3.022372373,0,0,0,0,0,0
1.5265185375465091,-2.410019377,-3.936593541,0.44175042,2.731556039,-3.173306459,0,0,0,0,0,0
1.6036281849991187,-2.474542677,-4.078240837,0.435457246,2.840934511,-3.276391757,0,0,0,0,0,0
1.673696157106468,-2.450665324,-4.124482969,0.388484584,2.899089563,-3.287574147,0,0,0,0,0,0
1.7297911992364252,-2.417301898,-4.147175941,0.343755349,2.93848357,-3.28223892,0,0,0,0,0,0
1.730231685504436,-2.472425446,-4.202748319,0.37109688,2.966490002,-3.337586883,0,0,0,0,0,0
1.7037705424209977,-2.521136881,-4.225033592,0.408683169,2.964402067,-3.373085237,0,0,0,0,0,0
1.660353398649373,-2.547893833,-4.208347691,0.443770217,2.934350545,-3.378120762,0,0,0,0,0,0
1.6239820720267086,-2.592786736,-4.216830818,0.484402332,2.920406445,-3.404808777,0,0,0,0,0,0
1.6142414818814705,-2.636326205,-4.250637384,0.511042362,2.932439433,-3.443481795,0,0,0,0,0,0
1.610117288516588,-2.648412467,-4.258628686,0.519147589,2.934372987,-3.453520577,0,0,0,0,0,0
1.6351196274432998,-2.567195255,-4.202415842,0.466037814,2.918767734,-3.384805548,0,0,0,0,0,0
1.6616645179917553,-2.499248217,-4.16097098,0.41879185,2.911317749,-3.330109599,0,0,0,0,0,0
1.6435239409136393,-2.497972646,-4.141512892,0.427224353,2.892518417,-3.319742769,0,0,0,0,0,0
1.5305436716238996,-2.455356037,-3.985958724,0.462406183,2.758251198,-3.220657381,0,0,0,0,0,0
1.4525499575614882,-2.437104925,-3.889738138,0.492277484,2.671144048,-3.163421532,0,0,0,0,0,0
1.4851938939149045,-2.435686053,-3.92093851,0.47524608,2.703066202,-3.178312281,0,0,0,0,0,0
1.4275613142593846,-2.436683828,-3.864309364,0.504561257,2.645935339,-3.150496596,0,0,0,0,0,0
1.2939328058092696,-2.458029205,-3.75203668,0.5820482,2.522984743,-3.105032943,0,0,0,0,0,0
1.260111912754768,-2.453267511,-3.713478597,0.596577799,2.486795255,-3.083373054,0,0,0,0,0,0
1.2940961719242172,-2.428389473,-3.722566754,0.567146651,2.508331463,-3.075478114,0,0,0,0,0,0
1.312935325523033,-2.443893872,-3.756900459,0.565479273,2.534917892,-3.100397165,0,0,0,0,0,0
1.3092444859953243,-2.463905192,-3.77324326,0.577330353,2.541243873,-3.118574226,0,0,0,0,0,0
1.3287814185903997,-2.477771495,-3.806622108,0.574495038,2.567701763,-3.142196802,0,0,0,0,0,0
1.3487917225253718,-2.484914551,-3.833803453,0.568061414,2.591297588,-3.159359002,0,0,0,0,0,0
1.3375766091607468,-2.462967946,-3.800631815,0.562695669,2.569104212,-3.131799881,0,0,0,0,0,0
1.3006577632102159,-2.483466951,-3.784185315,0.591404594,2.542421539,-3.133826133,0,0,0,0,0,0
1.305805248661886,-2.445556885,-3.751452226,0.569875818,2.528628737,-3.098504556,0,0,0,0,0,0
1.3353015282736935,-2.407369077,-3.742734655,0.536033774,2.539018091,-3.075051866,0,0,0,0,0,0
1.3473147111714991,-2.418665515,-3.766028062,0.535675402,2.556671387,-3.092346788,0,0,0,0,0,0
1.3586590145290807,-2.413038634,-3.771821351,0.527189809,2.565240183,-3.092429992,0,0,0,0,0,0
1.3529478009858098,-2.409732199,-3.762771734,0.528392199,2.557859768,-3.086251967,0,0,0,0,0,0
1.3434663364299277,-2.401727574,-3.745271869,0.529130619,2.544369103,-3.073499721,0,0,0,0,0,0
1.3436048434950916,-2.431786634,-3.775457194,0.544090895,2.559531019,-3.103621914,0,0,0,0,0,0
1.3210648104235971,-2.470123643,-3.791252791,0.574529416,2.556158801,-3.130688217,0,0,0,0,0,0
1.297760207862562,-2.500484231,-3.798347681,0.601362012,2.548053944,-3.149415956,0,0,0,0,0,0
1.3032191406444555,-2.462707229,-3.765984784,0.579744044,2.534601962,-3.114346006,0,0,0,0,0,0
1.2879832277508934,-2.401565851,-3.689563462,0.556791312,2.488773345,-3.045564657,0,0,0,0,0,0
1.2898961667353834,-2.402843659,-3.692820378,0.556473746,2.491358272,-3.047832018,0,0,0,0,0,0
1.3102279473434941,-2.410843835,-3.721166766,0.550307944,2.515697357,-3.066005301,0,0,0,0,0,0
1.294618831694952,-2.403121311,-3.697812684,0.55425124,2.496215758,-3.050466997,0,0,0,0,0,0
1.3193965125245921,-2.410485252,-3.729927137,0.54554437,2.524661825,-3.070206194,0,0,0,0,0,0
1.315134731934015,-2.457754565,-3.772956186,0.571309917,2.544045459,-3.115355376,0,0,0,0,0,0
1.2661094612191723,-2.503055786,-3.769256364,0.618473163,2.517682912,-3.136156075,0,0,0,0,0,0
1.2876247033062265,-2.459420174,-3.747109867,0.585897735,2.517367285,-3.103265021,0,0,0,0,0,0
1.3105747896614444,-2.412675519,-3.723325007,0.551050365,2.516949898,-3.068000263,0,0,0,0,0,0
1.3319759268074263,-2.414456053,-3.746489474,0.541240063,2.539232701,-3.080472764,0,0,0,0,0,0
1.346322066423183,-2.377597219,-3.723993517,0.515637576,2.535157792,-3.050795368,0,0,0,0,0,0
1.3195948839651517,-2.367181816,-3.686902492,0.523793466,2.503248688,-3.027042154,0,0,0,0,0,0
1.314009081670069,-2.427621578,-3.741733817,0.556806248,2.527871449,-3.084677698,0,0,0,0,0,0
1.2597530842472204,-2.462158016,-3.721955848,0.601202466,2.490854466,-3.092056932,0,0,0,0,0,0
1.2103043537807001,-2.507562992,-3.717909797,0.648629319,2.464107075,-3.112736395,0,0,0,0,0,0
1.2155909602939394,-2.505798685,-3.721454535,0.645103862,2.468522747,-3.11362661,0,0,0,0,0,0
1.2553527172838974,-2.444430242,-3.699867473,0.594538762,2.477610095,-3.072148858,0,0,0,0,0,0
1.2503209063494192,-2.41025955,-3.660641211,0.579969322,2.455481059,-3.035450381,0,0,0,0,0,0
1.2282545418886448,-2.392222574,-3.620538843,0.581984016,2.424396693,-3.006380709,0,0,0,0,0,0
1.2495655967082653,-2.387001808,-3.636632111,0.568718106,2.443098854,-3.011816959,0,0,0,0,0,0
1.2630069089564049,-2.399980849,-3.663021001,0.56848697,2.463013955,-3.031500925,0,0,0,0,0,0
1.243593214063882,-2.448364031,-3.692031415,0.602385408,2.467812314,-3.070197723,0,0,0,0,0,0
1.2466825312426004,-2.503241071,-3.750002057,0.62827927,2.498342294,-3.126621564,0,0,0,0,0,0
1.2568311949891187,-2.499155999,-3.756075388,0.621162402,2.506453292,-3.127615694,0,0,0,0,0,0
1.2780953444036385,-2.431368323,-3.709566406,0.576636489,2.493830875,-3.070467364,0,0,0,0,0,0
1.2834776953259155,-2.360360691,-3.643893377,0.538441498,2.463685536,-3.002127034,0,0,0,0,0,0
1.3000901957555229,-2.372065883,-3.67225678,0.535987844,2.486173488,-3.022161332,0,0,0,0,0,0
1.3126579516892434,-2.386523594,-3.69931959,0.536932821,2.505988771,-3.042921592,0,0,0,0,0,0
1.2833200123265764,-2.370617455,-3.654014122,0.543648721,2.468667067,-3.012315789,0,0,0,0,0,0
1.2377824388895402,-2.376612164,-3.614420066,0.569414863,2.426101253,-2.995516115,0,0,0,0,0,0
1.2230823950994811,-2.40815337,-3.631274337,0.592535488,2.427178366,-3.019713853,0,0,0,0,0,0
1.2462897635006864,-2.479299251,-3.725669612,0.616504744,2.485979688,-3.102484431,0,0,0,0,0,0
1.218561637432158,-2.443700019,-3.662337483,0.612569191,2.44044956,-3.053018751,0,0,0,0,0,0
1.1844593009283637,-2.364293031,-3.548829898,0.589916865,2.366644599,-2.956561464,0,0,0,0,0,0
1.2317141676503305,-2.352839511,-3.584687287,0.560562672,2.408200727,-2.968763399,0,0,0,0,0,0
1.2604122163623657,-2.371134864,-3.631640051,0.555361324,2.446026134,-3.001387458,0,0,0,0,0,0
1.2454194446185054,-2.387472266,-3.632970462,0.571026411,2.439194953,-3.010221364,0,0,0,0,0,0
1.2114094871672467,-2.389572806,-3.60106324,0.589081659,2.406236364,-2.995318023,0,0,0,0,0,0
1.1733778950469993,-2.395579672,-3.569028397,0.611100888,2.371203146,-2.982304034,0,0,0,0,0,0
1.2043707980623177,-2.41833458,-3.622812309,0.606981891,2.413591554,-3.020573445,0,0,0,0,0,0
1.224147984096096,-2.403962294,-3.628217013,0.589907155,2.426182498,-3.016089654,0,0,0,0,0,0
1.2140172979745198,-2.359314451,-3.57341908,0.572648576,2.393718189,-2.966366766,0,0,0,0,0,0
1.2213979330952462,-2.359433621,-3.580881042,0.569017844,2.401139488,-2.970157332,0,0,0,0,0,0
1.2249171501694154,-2.372722768,-3.597705265,0.573902809,2.411311208,-2.985214016,0,0,0,0,0,0
1.2251320407887838,-2.341626066,-3.566859932,0.558247013,2.395995986,-2.954242999,0,0,0,0,0,0
1.2039813030778195,-2.344099287,-3.548175595,0.570058992,2.376078449,-2.946137441,0,0,0,0,0,0
1.1728978506205023,-2.375422339,-3.548370384,0.601262244,2.360634117,-2.961896361,0,0,0,0,0,0
1.1613787120609158,-2.399448067,-3.560878046,0.619034677,2.361128379,-2.980163057,0,0,0,0,0,0
1.1640242607581752,-2.414089748,-3.578199595,0.625032744,2.371111928,-2.996144671,0,0,0,0,0,0
1.1781482519490563,-2.365482587,-3.543719949,0.593667167,2.3609341,-2.954601268,0,0,0,0,0,0
1.204476444443586,-2.307194466,-3.511709225,0.551359011,2.358092835,-2.909451845,0,0,0,0,0,0
1.231112096,-2.293943206,-3.525097546,0.531415555,2.378104821,-2.909520376,0,0,0,0,0,0
1.221204446671563,-2.28754757,-3.508827616,0.533171562,2.365016032,-2.898187593,0,0,0,0,0,0
1.1931211686925784,-2.294135938,-3.487346899,0.550507385,2.340234034,-2.890741419,0,0,0,0,0,0
1.190951191271604,-2.306666763,-3.49769808,0.557857786,2.344324636,-2.902182422,0,0,0,0,0,0
1.192378538349914,-2.317615038,-3.510079122,0.56261825,2.35122883,-2.91384708,0,0,0,0,0,0
1.1832511904012644,-2.342215896,-3.525566962,0.579482353,2.354409076,-2.933891429,0,0,0,0,0,0
1.1710782108018185,-2.312774841,-3.483923915,0.570848315,2.327501063,-2.898349378,0,0,0,0,0,0
1.1719021245314702,-2.26649379,-3.438465221,0.547295833,2.305183673,-2.852479506,0,0,0,0,0,0
1.1692735695687642,-2.275036702,-3.444398337,0.552881566,2.306835953,-2.85971752,0,0,0,0,0,0
1.1742531296316205,-2.280486421,-3.45481209,0.553116646,2.31453261,-2.867649255,0,0,0,0,0,0
1.166970408647992,-2.261332477,-3.428358949,0.547181034,2.297664679,-2.844845713,0,0,0,0,0,0
1.1472133527247075,-2.273840122,-3.421130896,0.563313385,2.284172125,-2.847485509,0,0,0,0,0,0
1.1406806361439052,-2.294648257,-3.43542243,0.576983811,2.288051533,-2.865035343,0,0,0,0,0,0
1.1359712198251206,-2.299439776,-3.435513509,0.581734278,2.285742364,-2.867476642,0,0,0,0,0,0
1.171955634692312,-2.260318949,-3.432379406,0.544181657,2.302167521,-2.846349178,0,0,0,0,0,0
1.1752260077491061,-2.214385272,-3.389688414,0.519579632,2.282457211,-2.802036843,0,0,0,0,0,0
1.1619427020814677,-2.201854777,-3.363841625,0.519956038,2.262892164,-2.782848201,0,0,0,0,0,0
1.1614594627856507,-2.200144461,-3.361691897,0.519342499,2.26157568,-2.780918179,0,0,0,0,0,0
1.1392086789970393,-2.200239518,-3.339569674,0.53051542,2.239389177,-2.769904596,0,0,0,0,0,0
1.1464978501285288,-2.217613333,-3.364207717,0.535557742,2.255352784,-2.790910525,0,0,0,0,0,0
1.1010191708514272,-2.240410626,-3.341500541,0.569695728,2.221259856,-2.790955583,0,0,0,0,0,0
1.043906632708275,-2.247797988,-3.291776905,0.601945678,2.167841769,-2.769787447,0,0,0,0,0,0
1.0907307026217927,-2.233160879,-3.323977544,0.571215088,2.207354124,-2.778569212,0,0,0,0,0,0
1.1550861665218477,-2.185730148,-3.340931273,0.515321991,2.24800872,-2.76333071,0,0,0,0,0,0
1.2071742443158993,-2.165769284,-3.373039722,0.47929752,2.290106983,-2.769404503,0,0,0,0,0,0
1.1902262194500628,-2.162815594,-3.353087213,0.486294687,2.271656716,-2.757951404,0,0,0,0,0,0
1.1163960020579378,-2.155136223,-3.271586503,0.51937011,2.193991252,-2.713361363,0,0,0,0,0,0
1.1201501983733022,-2.154466533,-3.274682477,0.517158167,2.197416337,-2.714574505,0,0,0,0,0,0
1.1267538496887488,-2.154348767,-3.28115083,0.513797459,2.20395234,-2.717749799,0,0,0,0,0,0
1.0744631214357638,-2.177760751,-3.25225555,0.551648815,2.163359336,-2.715008151,0,0,0,0,0,0
1.065714225731701,-2.20525321,-3.27100669,0.569769492,2.168360458,-2.73812995,0,0,0,0,0,0
1.1082357038540476,-2.148640356,-3.256953239,0.520202326,2.182594471,-2.702796798,0,0,0,0,0,0
1.1146958113548258,-2.111741873,-3.226562425,0.498523031,2.170629118,-2.669152149,0,0,0,0,0,0
1.070339320082229,-2.10759722,-3.178057599,0.51862895,2.12419846,-2.64282741,0,0,0,0,0,0
1.0828592952846567,-2.096563308,-3.179496156,0.506852006,2.131177726,-2.638029732,0,0,0,0,0,0
1.1117832386044693,-2.10346067,-3.215327223,0.495838716,2.163555231,-2.659393946,0,0,0,0,0,0
1.1011728479819554,-2.087314056,-3.188610202,0.493070604,2.144891525,-2.637962129,0,0,0,0,0,0
1.088078673589218,-2.089740149,-3.177933097,0.500830738,2.133005885,-2.633836623,0,0,0,0,0,0
1.0843974555550238,-2.162733097,-3.247189174,0.539167821,2.165793315,-2.704961136,0,0,0,0,0,0
1.0945509069411161,-2.177820064,-3.27244141,0.541634578,2.183496158,-2.725130737,0,0,0,0,0,0
1.1323779425514453,-2.131771167,-3.264206443,0.499696612,2.198292193,-2.697988805,0,0,0,0,0,0
1.1450605552849569,-2.12269325,-3.267810867,0.488816347,2.206435711,-2.695252058,0,0,0,0,0,0
1.1225572026554278,-2.10975781,-3.232411881,0.493600304,2.177484542,-2.671084846,0,0,0,0,0,0
1.1354680909622905,-2.125580344,-3.261107603,0.495056127,2.198287847,-2.693343974,0,0,0,0,0,0
1.142102102700064,-2.161682908,-3.303833101,0.509790402,2.222967602,-2.732758004,0,0,0,0,0,0
1.1557378444265234,-2.191793356,-3.347610835,0.518027756,2.25167434,-2.769702096,0,0,0,0,0,0
1.0883427569480337,-2.254679728,-3.343098587,0.583168486,2.215720672,-2.798889158,0,0,0,0,0,0
1.0416175128389231,-2.282169414,-3.323857947,0.620275951,2.18273773,-2.803013681,0,0,0,0,0,0
1.089926758186349,-2.25943468,-3.349465976,0.584753961,2.219696367,-2.804450328,0,0,0,0,0,0
1.0990662724966027,-2.236234761,-3.335359458,0.568584244,2.217212865,-2.785797109,0,0,0,0,0,0
1.105209888859971,-2.228576333,-3.333846703,0.561683222,2.219528296,-2.781211518,0,0,0,0,0,0
1.1061650523247215,-2.265859811,-3.372099011,0.579847379,2.239132032,-2.818979411,0,0,0,0,0,0
1.108651782845884,-2.307543282,-3.41626859,0.59944575,2.262460187,-2.861905936,0,0,0,0,0,0
1.1433254505656447,-2.345796497,-3.489234913,0.601235523,2.316280182,-2.917515705,0,0,0,0,0,0
1.1358950144622402,-2.38951217,-3.525531824,0.626808578,2.330713419,-2.957521997,0,0,0,0,0,0
1.1121678591942268,-2.426597877,-3.538858529,0.657215009,2.325513194,-2.982728203,0,0,0,0,0,0
1.1190921963690004,-2.392365876,-3.511524604,0.63663684,2.3153084,-2.95194524,0,0,0,0,0,0
1.151453092410055,-2.34549733,-3.497042223,0.597022119,2.324247657,-2.921269776,0,0,0,0,0,0
1.1896968156615588,-2.35808729,-3.547853508,0.584195237,2.368775162,-2.952970399,0,0,0,0,0,0
1.194491003,-2.387446638,-3.58199376,0.596477818,2.388242381,-2.984720199,0,0,0,0,0,0
1.1952592447341395,-2.382292217,-3.577637177,0.593516486,2.386448211,-2.979964697,0,0,0,0,0,0
1.1896746558588174,-2.400395721,-3.590164102,0.605360533,2.389919379,-2.995279912,0,0,0,0,0,0
1.1824472744209034,-2.463253322,-3.645783702,0.640403024,2.414115488,-3.054518512,0,0,0,0,0,0
1.1832952730258444,-2.510719952,-3.694091137,0.663712339,2.438693205,-3.102405545,0,0,0,0,0,0
1.2037123082907994,-2.492277923,-3.696082019,0.644282807,2.449897164,-3.094179971,0,0,0,0,0,0
1.2145520455641738,-2.460057664,-3.674703444,0.622752809,2.444627745,-3.067380554,0,0,0,0,0,0
1.2169510606761176,-2.439027779,-3.656041027,0.611038359,2.436496044,-3.047534403,0,0,0,0,0,0
1.253144591,-2.430401703,-3.683614951,0.588628556,2.468379771,-3.057008327,0,0,0,0,0,0
1.2464189709750189,-2.420944245,-3.667437347,0.587262637,2.456928159,-3.044190796,0,0,0,0,0,0
1.217328892449719,-2.465344435,-3.682744787,0.624007771,2.45003684,-3.074044611,0,0,0,0,0,0
1.2402664843870164,-2.539269526,-3.779588174,0.649501521,2.509927329,-3.15942885,0,0,0,0,0,0
1.263115042174005,-2.58069882,-3.843845412,0.658791889,2.553480227,-3.212272116,0,0,0,0,0,0
1.2675536170454265,-2.575947058,-3.843564414,0.654196721,2.555559016,-3.209755736,0,0,0,0,0,0
1.2733536922785402,-2.52144505,-3.79491218,0.624045679,2.534132936,-3.158178615,0,0,0,0,0,0
1.2906443027298595,-2.479506474,-3.770263412,0.594431086,2.530453857,-3.124884943,0,0,0,0,0,0
1.2978590426978258,-2.4725831,-3.770514417,0.587362028,2.53418673,-3.121548758,0,0,0,0,0,0
1.3040110730291063,-2.464447217,-3.768523621,0.580218072,2.536267347,-3.116485419,0,0,0,0,0,0
1.2940930148741883,-2.469434977,-3.763608261,0.587670981,2.528850638,-3.116521619,0,0,0,0,0,0
1.2637248675275867,-2.482294984,-3.746082443,0.609285058,2.504903655,-3.114188714,0,0,0,0,0,0
1.2612786414582207,-2.507630035,-3.768974648,0.623175697,2.515126645,-3.138302341,0,0,0,0,0,0
1.2554265243722722,-2.553695864,-3.809235788,0.64913467,2.532331156,-3.181465826,0,0,0,0,0,0
1.2529277626074729,-2.508226188,-3.761240759,0.627649213,2.507084261,-3.134733474,0,0,0,0,0,0
1.262353424569323,-2.437491944,-3.699889001,0.58756926,2.481121213,-3.068690473,0,0,0,0,0,0
1.2867293245948985,-2.434443715,-3.721237703,0.573857195,2.503983514,-3.077840709,0,0,0,0,0,0
1.3171595967578706,-2.45767071,-3.77491676,0.570255556,2.546038178,-3.116293735,0,0,0,0,0,0
1.3021948656232216,-2.496888681,-3.799150588,0.597346908,2.550672727,-3.148019634,0,0,0,0,0,0
1.2869516362542819,-2.504354273,-3.791352525,0.608701318,2.539152081,-3.147853399,0,0,0,0,0,0
1.3061945151782197,-2.508568636,-3.81484968,0.60118706,2.560522098,-3.161709158,0,0,0,0,0,0
1.2800845989785412,-2.579998237,-3.86017141,0.649956819,2.570128004,-3.220084824,0,0,0,0,0,0
1.243499649957708,-2.571249729,-3.814820714,0.66387504,2.529160182,-3.193035222,0,0,0,0,0,0
1.2427890951167244,-2.506955069,-3.749819697,0.632082987,2.496304396,-3.128387383,0,0,0,0,0,0
1.293267522347309,-2.489725212,-3.783056404,0.598228845,2.538161963,-3.136390808,0,0,0,0,0,0
1.3430520834487816,-2.467448161,-3.810545485,0.562198039,2.576798784,-3.138996823,0,0,0,0,0,0
1.3408168441197463,-2.468070675,-3.808933541,0.563626916,2.574875193,-3.138502108,0,0,0,0,0,0
1.336448522329801,-2.456298424,-3.792816944,0.559924951,2.564632733,-3.124557684,0,0,0,0,0,0
1.3203153461399324,-2.45699178,-3.777379788,0.568338217,2.548847567,-3.117185784,0,0,0,0,0,0
1.258161595474103,-2.52341646,-3.781661451,0.632627432,2.519911523,-3.152538955,0,0,0,0,0,0
1.250906802168505,-2.529727126,-3.780739523,0.639410162,2.515823163,-3.155233325,0,0,0,0,0,0
1.2751722178204719,-2.49618643,-3.771445295,0.610507106,2.523308756,-3.133815863,0,0,0,0,0,0
1.287011443460365,-2.445051298,-3.732077097,0.579019927,2.50954427,-3.088564197,0,0,0,0,0,0
1.311826445120182,-2.456364619,-3.768212698,0.572269087,2.540019571,-3.112288658,0,0,0,0,0,0
1.3258975745146142,-2.528495639,-3.854489513,0.601299032,2.590193544,-3.191492576,0,0,0,0,0,0
1.335638519580328,-2.507888813,-3.843590259,0.586125147,2.589614389,-3.175739536,0,0,0,0,0,0
1.3036458781579805,-2.478571538,-3.782274797,0.58746283,2.542960338,-3.130423167,0,0,0,0,0,0
1.2608827264113078,-2.512622232,-3.773589586,0.625869753,2.517236156,-3.143105909,0,0,0,0,0,0
1.263373999,-2.552906264,-3.8163669,0.644766133,2.539870449,-3.184636582,0,0,0,0,0,0
1.2826696353640772,-2.533053213,-3.81580817,0.625191789,2.549238903,-3.174430692,0,0,0,0,0,0
1.3232878272470412,-2.450217724,-3.773556286,0.563464948,2.548422057,-3.111887005,0,0,0,0,0,0
1.3191993151782813,-2.415569721,-3.734822176,0.548185203,2.527010745,-3.075195948,0,0,0,0,0,0
1.2771069588919555,-2.44038951,-3.717562407,0.581641276,2.497334683,-3.078975959,0,0,0,0,0,0
1.294221066091197,-2.458609465,-3.752893823,0.5821942,2.523557444,-3.105751644,0,0,0,0,0,0
1.342065843033785,-2.468386743,-3.810530207,0.56316045,2.576298025,-3.139458475,0,0,0,0,0,0
1.3492266871778764,-2.503186832,-3.852478697,0.576980072,2.600852692,-3.177832764,0,0,0,0,0,0
1.2914291738797412,-2.54638932,-3.837884156,0.627480073,2.564656665,-3.192136738,0,0,0,0,0,0
1.2653028495571619,-2.508215468,-3.773637541,0.621456309,2.519470195,-3.140926504,0,0,0,0,0,0
1.2726265611669318,-2.455704912,-3.728475875,0.591539176,2.500551218,-3.092090394,0,0,0,0,0,0
1.2873712350587334,-2.443875689,-3.731340821,0.578252227,2.509356028,-3.087608255,0,0,0,0,0,0
1.3329655360754573,-2.446836313,-3.779851467,0.556935388,2.556408501,-3.11334389,0,0,0,0,0,0
1.306950006066811,-2.458735028,-3.765738575,0.575892511,2.536344291,-3.112236802,0,0,0,0,0,0
1.2314553079074648,-2.478400918,-3.709912562,0.623472805,2.470683935,-3.09415674,0,0,0,0,0,0
1.2229367491550833,-2.490758331,-3.71376717,0.633910791,2.468351959,-3.10226275,0,0,0,0,0,0
1.2508331148348635,-2.500188734,-3.751107505,0.62467781,2.50097031,-3.125648119,0,0,0,0,0,0
1.2867131841755628,-2.507918767,-3.794692129,0.610602791,2.540702657,-3.151305448,0,0,0,0,0,0
1.3008165488266008,-2.512938582,-3.813804706,0.606061017,2.557310628,-3.163371644,0,0,0,0,0,0
1.281292365775686,-2.497718065,-3.779074429,0.60821285,2.530183397,-3.138396247,0,0,0,0,0,0
1.2836959384716702,-2.503759906,-3.787549593,0.610031984,2.535622766,-3.145654749,0,0,0,0,0,0
1.2989835936761598,-2.494042813,-3.793071572,0.59752961,2.546027583,-3.143557192,0,0,0,0,0,0
1.2886821995026934,-2.471320071,-3.760082268,0.591318936,2.524382234,-3.11570117,0,0,0,0,0,0
1.2884153196710515,-2.497929231,-3.786484511,0.604756956,2.537449915,-3.142206871,0,0,0,0,0,0
1.2952996770512255,-2.500219316,-3.795600661,0.602459819,2.545450169,-3.147909988,0,0,0,0,0,0
1.2553628726592454,-2.524932264,-3.780341038,0.634784696,2.517851955,-3.152636651,0,0,0,0,0,0
1.258890590543989,-2.5326117,-3.791586559,0.636860555,2.525238575,-3.162099129,0,0,0,0,0,0
1.297699183,-2.486966154,-3.784740652,0.594633485,2.541219918,-3.135853403,0,0,0,0,0,0
1.2901075652917118,-2.454190979,-3.744379483,0.582041707,2.517243524,-3.099285231,0,0,0,0,0,0
1.3139021245759195,-2.455858896,-3.769861871,0.570978386,2.541881998,-3.112860383,0,0,0,0,0,0
1.3123117520386134,-2.471885686,-3.784252597,0.579786967,2.548282175,-3.128069142,0,0,0,0,0,0
1.2617784034303583,-2.496944801,-3.758794241,0.617583199,2.510286322,-3.127869521,0,0,0,0,0,0
1.2676050839861919,-2.511343168,-3.77902963,0.621869042,2.523317357,-3.145186399,0,0,0,0,0,0
1.2810604100097596,-2.519021713,-3.800144377,0.618980651,2.540602394,-3.159583045,0,0,0,0,0,0
1.290892107751392,-2.494222248,-3.785212403,0.60166507,2.538052255,-3.139717325,0,0,0,0,0,0
1.278610939138042,-2.509861674,-3.788564032,0.615625368,2.533587486,-3.149212853,0,0,0,0,0,0
1.2771016223839522,-2.525499581,-3.802679922,0.62419898,2.539890772,-3.164089752,0,0,0,0,0,0
1.3016147594368863,-2.486183713,-3.787875503,0.592284477,2.544745131,-3.137029608,0,0,0,0,0,0
1.3154624745332848,-2.493537395,-3.809071151,0.58903746,2.562266813,-3.151304273,0,0,0,0,0,0
1.3172933950774606,-2.503776051,-3.821127806,0.593241328,2.569210601,-3.162451929,0,0,0,0,0,0
1.2815784336644627,-2.506383599,-3.788007638,0.612402583,2.534793036,-3.147195619,0,0,0,0,0,0
1.2462735472618909,-2.561516149,-3.807857426,0.657621301,2.527065487,-3.184686788,0,0,0,0,0,0
1.2446302266219156,-2.563341912,-3.808034867,0.659355843,2.526332547,-3.18568839,0,0,0,0,0,0
1.2981887667987524,-2.516814443,-3.81504561,0.609312838,2.556617188,-3.165930026,0,0,0,0,0,0
1.3106788535593281,-2.51687463,-3.827613798,0.603097888,2.569146326,-3.172244214,0,0,0,0,0,0
1.2912408049600024,-2.498173099,-3.789517055,0.603466147,2.54037893,-3.143845077,0,0,0,0,0,0
1.3042933378631703,-2.462548679,-3.766936076,0.579127671,2.535614707,-3.114742378,0,0,0,0,0,0
1.2872322243330938,-2.485977788,-3.773278238,0.599372782,2.530255231,-3.129628013,0,0,0,0,0,0
1.276908892,-2.511608864,-3.788593653,0.617349986,2.532751273,-3.150101259,0,0,0,0,0,0
1.265644931411166,-2.549778918,-3.815488482,0.642066993,2.540566707,-3.1826337,0,0,0,0,0,0
1.2470936462771989,-2.581863921,-3.829027143,0.667385137,2.538060394,-3.205445532,0,0,0,0,0,0
1.222357530475907,-2.545520986,-3.767974948,0.661581728,2.495166239,-3.156747967,0,0,0,0,0,0
1.2626373519647953,-2.504478322,-3.767204183,0.620920485,2.514920767,-3.135841252,0,0,0,0,0,0
1.3325767255572096,-2.514445087,-3.847113533,0.590934181,2.589845129,-3.18077931,0,0,0,0,0,0
1.319433380617274,-2.518650508,-3.838126853,0.599608564,2.578780117,-3.178388681,0,0,0,0,0,0
1.2710544480037782,-2.506984725,-3.778092286,0.617965138,2.524573367,-3.142538505,0,0,0,0,0,0
1.229552093808075,-2.514035424,-3.743674342,0.642241665,2.486613218,-3.128854883,0,0,0,0,0,0
1.2402763683981755,-2.522370164,-3.762711704,0.641046898,2.501494036,-3.142540934,0,0,0,0,0,0
1.2711955308864438,-2.531751145,-3.803025736,0.630277807,2.537110633,-3.16738844,0,0,0,0,0,0
1.2409585764609732,-2.533663903,-3.774706765,0.646352663,2.507832671,-3.154185334,0,0,0,0,0,0
1.2564809334221654,-2.50860047,-3.765148623,0.626059768,2.510814778,-3.136874547,0,0,0,0,0,0
1.293036500763386,-2.49447911,-3.787583682,0.600721304,2.540310091,-3.141031396,0,0,0,0,0,0
1.259577865,-2.506158427,-3.765815541,0.623290281,2.512696703,-3.135986984,0,0,0,0,0,0
1.2586082970586638,-2.497639814,-3.756303775,0.619515758,2.507456036,-3.126971794,0,0,0,0,0,0
1.3196574255203182,-2.468267004,-3.787970755,0.574304789,2.55381409,-3.128118879,0,0,0,0,0,0
1.3258791293477796,-2.474030555,-3.799990229,0.574075713,2.562934679,-3.137010392,0,0,0,0,0,0
1.2583638971771034,-2.560294498,-3.81875415,0.650965301,2.538559023,-3.189524324,0,0,0,0,0,0
1.2760937663333158,-2.599933401,-3.876113077,0.661919817,2.576103422,-3.238023239,0,0,0,0,0,0
1.3000491668399468,-2.533181535,-3.833321498,0.616566184,2.566685333,-3.183251517,0,0,0,0,0,0
1.2802297463587404,-2.49550061,-3.77581784,0.607635432,2.528023793,-3.135659225,0,0,0,0,0,0
1.2928676326452315,-2.510820759,-3.803752986,0.608976563,2.548310309,-3.157286872,0,0,0,0,0,0
1.2845876516238859,-2.503871635,-3.788533345,0.609641992,2.536560498,-3.14620249,0,0,0,0,0,0
1.294754125068534,-2.478534142,-3.773382985,0.591890008,2.534068555,-3.125958564,0,0,0,0,0,0
1.3372335226599465,-2.49303094,-3.830359782,0.577898709,2.583796652,-3.161695361,0,0,0,0,0,0
1.343707229985744,-2.557178578,-3.900948945,0.606735674,2.622328087,-3.229063761,0,0,0,0,0,0
1.2935494778497678,-2.617933821,-3.911574129,0.662192172,2.602561804,-3.264753975,0,0,0,0,0,0
1.2291446691872507,-2.580819065,-3.810111727,0.675837198,2.519628198,-3.195465396,0,0,0,0,0,0
1.2280274408978311,-2.512293744,-3.740420641,0.642133151,2.484224041,-3.126357192,0,0,0,0,0,0
1.2655296287498072,-2.490072133,-3.755674643,0.612271252,2.510602136,-3.122873388,0,0,0,0,0,0
1.3158045328859342,-2.489856415,-3.805740474,0.587025941,2.560772504,-3.147798445,0,0,0,0,0,0
1.3445168247730876,-2.498611734,-3.843189962,0.577047454,2.593853393,-3.170900848,0,0,0,0,0,0
1.3049714688975853,-2.50928374,-3.81432722,0.602156136,2.559649344,-3.16180548,0,0,0,0,0,0
1.247142126,-2.520948455,-3.768174113,0.636903164,2.50765812,-3.144561284,0,0,0,0,0,0
1.2441348131343095,-2.550048632,-3.79426781,0.65295691,2.519201312,-3.172158221,0,0,0,0,0,0
1.281517718867735,-2.544905965,-3.826508235,0.631694123,2.554012977,-3.1857071,0,0,0,0,0,0
1.2949132572721733,-2.507316411,-3.802291732,0.606201577,2.548602495,-3.154804072,0,0,0,0,0,0
1.2538429698819877,-2.501861529,-3.755763757,0.62400928,2.504803363,-3.128812643,0,0,0,0,0,0
1.2540384127260569,-2.526008162,-3.780142248,0.635984875,2.517090331,-3.153075205,0,0,0,0,0,0
1.2739539996298994,-2.510330049,-3.784356163,0.618188025,2.529155081,-3.147343106,0,0,0,0,0,0
1.2767319832878787,-2.508696692,-3.785504192,0.615982354,2.531118088,-3.147100442,0,0,0,0,0,0
1.3023350244101723,-2.532131961,-3.83454229,0.614898468,2.568438657,-3.183337126,0,0,0,0,0,0
1.2786038147776075,-2.544141979,-3.822790223,0.632769082,2.550697019,-3.183466101,0,0,0,0,0,0
1.243543827218526,-2.538893317,-3.782499166,0.647674745,2.513021496,-3.160696241,0,0,0,0,0,0
1.2472182671831304,-2.51102577,-3.758332278,0.631903752,2.502775272,-3.134679024,0,0,0,0,0,0
1.2442351845729425,-2.525780663,-3.770085878,0.640772739,2.507160531,-3.147933271,0,0,0,0,0,0
1.2729664676047032,-2.54367924,-3.81672591,0.635356386,2.544846189,-3.180202575,0,0,0,0,0,0
1.3078725199300492,-2.520416496,-3.828353356,0.606271988,2.568112938,-3.174384926,0,0,0,0,0,0
1.3161036613333519,-2.532273264,-3.848442211,0.608084802,2.582272936,-3.190357738,0,0,0,0,0,0
1.2749884949432655,-2.553659048,-3.828747915,0.639335276,2.551868205,-3.191203481,0,0,0,0,0,0
1.220301172427306,-2.569881732,-3.790254846,0.67479028,2.505278009,-3.180068289,0,0,0,0,0,0
1.211331496,-2.5911836,-3.802562137,0.689926052,2.506946817,-3.196872868,0,0,0,0,0,0
1.2290729477222364,-2.549283495,-3.778420929,0.660105273,2.503746939,-3.163852212,0,0,0,0,0,0
1.2442854212709802,-2.496901984,-3.741266606,0.626308281,2.492776014,-3.119084295,0,0,0,0,0,0
1.3087463016424425,-2.515897337,-3.824722156,0.603575518,2.566734229,-3.170309747,0,0,0,0,0,0
1.323358360850136,-2.523083072,-3.84652041,0.599862356,2.584939386,-3.184801741,0,0,0,0,0,0
1.239336065523629,-2.504077943,-3.743494092,0.632370938,2.491415079,-3.123786017,0,0,0,0,0,0
1.2226657326856862,-2.52005959,-3.742795291,0.648696929,2.482730512,-3.131427441,0,0,0,0,0,0
1.2380140483757371,-2.530052438,-3.768144878,0.646019195,2.503079463,-3.149098658,0,0,0,0,0,0
1.2203382264804754,-2.568842571,-3.78927673,0.674252172,2.504807478,-3.179059651,0,0,0,0,0,0
1.2202668114364774,-2.598908775,-3.819248388,0.689320982,2.5197576,-3.209078581,0,0,0,0,0,0
1.2702241551913394,-2.553167861,-3.823458001,0.641471853,2.546841078,-3.188312931,0,0,0,0,0,0
1.2713203343942294,-2.513882091,-3.785285602,0.621280878,2.528302968,-3.149583846,0,0,0,0,0,0
1.253275334154805,-2.484171759,-3.737529006,0.615448213,2.49540217,-3.110850383,0,0,0,0,0,0
1.2814689525614797,-2.506994849,-3.788557503,0.612762948,2.535013228,-3.147776176,0,0,0,0,0,0
1.2874404108150124,-2.558895727,-3.846422388,0.635727658,2.566931399,-3.202659057,0,0,0,0,0,0
1.284707199828086,-2.562884386,-3.847691197,0.639088593,2.566199198,-3.205287791,0,0,0,0,0,0
1.283589889295692,-2.58330095,-3.867002806,0.64985553,2.575296348,-3.225151878,0,0,0,0,0,0
1.2464085572669004,-2.572919415,-3.819383905,0.663255429,2.532896231,-3.19615166,0,0,0,0,0,0
1.2448262592193995,-2.507229001,-3.752094296,0.631201371,2.498460277,-3.129661648,0,0,0,0,0,0
1.2546303130455945,-2.49570834,-3.750417138,0.620539014,2.502523725,-3.123062739,0,0,0,0,0,0
1.2576680118803347,-2.524991433,-3.782713003,0.633661711,2.520190507,-3.153852218,0,0,0,0,0,0
1.2677436292021338,-2.54684704,-3.814618486,0.639551706,2.541181058,-3.180732763,0,0,0,0,0,0
1.2303394882323464,-2.550695438,-3.781088677,0.660177975,2.505714083,-3.165892058,0,0,0,0,0,0
1.2058467395796517,-2.541205414,-3.74713018,0.667679337,2.47648846,-3.144167797,0,0,0,0,0,0
1.1940728766240436,-2.569358188,-3.763504649,0.687642656,2.478788763,-3.166431418,0,0,0,0,0,0
1.1735651460619136,-2.559234643,-3.732877954,0.692834749,2.45322155,-3.146056299,0,0,0,0,0,0
1.202081446726382,-2.552151868,-3.7543277,0.67503521,2.478204573,-3.153239784,0,0,0,0,0,0
1.203067346557842,-2.55671657,-3.759873894,0.676824612,2.48147062,-3.158295232,0,0,0,0,0,0
1.180379976,-2.562870687,-3.743345631,0.691245355,2.461862804,-3.153108159,0,0,0,0,0,0
1.208709318435426,-2.613313954,-3.822106368,0.702302318,2.515407843,-3.217710161,0,0,0,0,0,0
1.2029788102985515,-2.596285089,-3.799337059,0.696653139,2.501157935,-3.197811074,0,0,0,0,0,0
1.1684210194209628,-2.578109917,-3.746623589,0.704844449,2.457522304,-3.162366753,0,0,0,0,0,0
1.1868867259939235,-2.621611832,-3.808597794,0.717362553,2.49774226,-3.215104813,0,0,0,0,0,0
1.1997648863908277,-2.657852284,-3.857702877,0.729043699,2.528733882,-3.257777581,0,0,0,0,0,0
1.1701721327150625,-2.628997689,-3.799242207,0.729412778,2.48470717,-3.214119948,0,0,0,0,0,0
1.1742497650490775,-2.587630845,-3.761930265,0.70669054,2.468090015,-3.174780555,0,0,0,0,0,0
1.1917800225330215,-2.571516944,-3.763389119,0.68986846,2.477584571,-3.167453031,0,0,0,0,0,0
1.1839555519042744,-2.583620755,-3.767676949,0.699832602,2.475816251,-3.175648852,0,0,0,0,0,0
1.1805718513602816,-2.587224799,-3.767839276,0.703326474,2.474205564,-3.177532037,0,0,0,0,0,0
1.148365258851998,-2.572926943,-3.721352876,0.712280842,2.434859068,-3.147139909,0,0,0,0,0,0
1.1328857976766291,-2.583672674,-3.71663273,0.725393438,2.424759264,-3.150152702,0,0,0,0,0,0
1.097246807464368,-2.629233789,-3.726558676,0.765993491,2.411902742,-3.177896233,0,0,0,0,0,0
1.0591498388515557,-2.632966478,-3.692190986,0.78690832,2.375670413,-3.162578732,0,0,0,0,0,0
1.0643385573717814,-2.581982391,-3.646369123,0.758821917,2.35535384,-3.114175757,0,0,0,0,0,0
1.0790521862615425,-2.57447505,-3.653607033,0.747711432,2.36632961,-3.114041042,0,0,0,0,0,0
1.1060420217689493,-2.602636933,-3.708770458,0.748297456,2.40740624,-3.155703696,0,0,0,0,0,0
1.119976055959204,-2.593105274,-3.713173404,0.736564609,2.41657473,-3.153139339,0,0,0,0,0,0
1.1334144745020176,-2.584713512,-3.718206929,0.725649519,2.425810702,-3.15146022,0,0,0,0,0,0
1.1585204992472204,-2.608592942,-3.767193118,0.725036222,2.462856809,-3.18789303,0,0,0,0,0,0
1.185489225740057,-2.608544224,-3.794086149,0.711527499,2.489787687,-3.201315186,0,0,0,0,0,0
1.183292783671925,-2.612298569,-3.795637839,0.714502893,2.489465311,-3.203968204,0,0,0,0,0,0
1.1522199255837582,-2.590144708,-3.742423159,0.718962391,2.447321542,-3.166283934,0,0,0,0,0,0
1.1669987161015154,-2.537268971,-3.704332706,0.685135127,2.435665711,-3.120800838,0,0,0,0,0,0
1.208301026110403,-2.517830134,-3.726207851,0.654764554,2.467254438,-3.122018992,0,0,0,0,0,0
1.1928250554691417,-2.511037207,-3.703931615,0.659106076,2.448378335,-3.107484411,0,0,0,0,0,0
1.1502825403741113,-2.534269789,-3.684641284,0.691993624,2.417461912,-3.109455536,0,0,0,0,0,0
1.1700015137671405,-2.55413918,-3.724213582,0.692068833,2.447107548,-3.139176381,0,0,0,0,0,0
1.1834641305232774,-2.588331021,-3.77188884,0.702433445,2.477676485,-3.180109931,0,0,0,0,0,0
1.1518834812732874,-2.614068671,-3.766057455,0.731092595,2.458970468,-3.190063063,0,0,0,0,0,0
1.167631688953096,-2.578652628,-3.746345299,0.70551047,2.456988494,-3.162498964,0,0,0,0,0,0
1.2099705661908522,-2.53828077,-3.748316693,0.664155102,2.47914363,-3.143298731,0,0,0,0,0,0
1.2144345933613854,-2.519891609,-3.734430609,0.652728508,2.474432601,-3.127161109,0,0,0,0,0,0
1.241074310516347,-2.508428062,-3.74960685,0.633676876,2.49534058,-3.129017456,0,0,0,0,0,0
1.2712843830964349,-2.495993117,-3.767366661,0.612354367,2.519325522,-3.131679889,0,0,0,0,0,0
1.2749514789875123,-2.493251956,-3.768283846,0.609150238,2.521617662,-3.130767901,0,0,0,0,0,0
1.2686948125795223,-2.514775564,-3.783523262,0.623040376,2.526109037,-3.149149413,0,0,0,0,0,0
1.2068418264048588,-2.563274312,-3.770192916,0.678216243,2.488517371,-3.166733614,0,0,0,0,0,0
1.1715728245671861,-2.599461724,-3.771137891,0.71394445,2.471355358,-3.185299807,0,0,0,0,0,0
1.2323243166612758,-2.583293741,-3.815730872,0.675484712,2.524027594,-3.199512306,0,0,0,0,0,0
1.2901001146594473,-2.528929255,-3.819121488,0.61941457,2.554610801,-3.174025372,0,0,0,0,0,0
1.2828449768008268,-2.499990775,-3.782902487,0.608572899,2.532873732,-3.141446631,0,0,0,0,0,0
1.251170170200496,-2.509826168,-3.761061684,0.629327999,2.506115927,-3.135443926,0,0,0,0,0,0
1.258016192198724,-2.546494487,-3.804562264,0.644239147,2.531289228,-3.175528375,0,0,0,0,0,0
1.2845413146977547,-2.545211094,-3.829813693,0.63033489,2.557177504,-3.187512393,0,0,0,0,0,0
1.2705518090585421,-2.554561273,-3.82517807,0.642004732,2.547864939,-3.189869671,0,0,0,0,0,0
1.2410234057343603,-2.592433281,-3.833542271,0.675704938,2.537282838,-3.212987776,0,0,0,0,0,0
1.2666807491473606,-2.567171983,-3.833977412,0.650245617,2.550329081,-3.200574698,0,0,0,0,0,0
1.308837787711122,-2.548388384,-3.857304516,0.619775298,2.583071152,-3.20284645,0,0,0,0,0,0
1.295692637938728,-2.548201727,-3.843973029,0.626254545,2.569832833,-3.196087378,0,0,0,0,0,0
1.2705140260201684,-2.520706054,-3.791318032,0.625096014,2.530916029,-3.156012043,0,0,0,0,0,0
1.273931483262704,-2.49887975,-3.772895419,0.612474133,2.523413451,-3.135887585,0,0,0,0,0,0
1.2653072096087803,-2.499669625,-3.76507892,0.617181208,2.515193065,-3.132374273,0,0,0,0,0,0
1.2417682907322793,-2.519767856,-3.761612618,0.638999783,2.501690454,-3.140690237,0,0,0,0,0,0
1.2380077372684741,-2.563237539,-3.801323495,0.662614901,2.519665616,-3.182280517,0,0,0,0,0,0
1.264227928538293,-2.560917809,-3.825262654,0.64834494,2.544745291,-3.193090231,0,0,0,0,0,0
1.2662766293524694,-2.534406963,-3.800763449,0.634065167,2.533520039,-3.167585206,0,0,0,0,0,0
1.2983967550687354,-2.487735355,-3.78618558,0.5946693,2.542291168,-3.136960467,0,0,0,0,0,0
1.3460616177558224,-2.453826912,-3.799984851,0.553882647,2.573023234,-3.126905881,0,0,0,0,0,0
1.3620648263801707,-2.485191435,-3.847327137,0.561563304,2.604695982,-3.166259286,0,0,0,0,0,0
1.3526187221153496,-2.53962503,-3.892333425,0.593503154,2.622476074,-3.215979228,0,0,0,0,0,0
1.316172505175973,-2.542156124,-3.858447336,0.612991809,2.587309921,-3.20030173,0,0,0,0,0,0
1.2810332392793635,-2.588014421,-3.869146849,0.653490591,2.575090044,-3.228580635,0,0,0,0,0,0
1.2547206538731683,-2.599570703,-3.854378486,0.672425024,2.55454957,-3.226974595,0,0,0,0,0,0
1.248156129827196,-2.537148576,-3.785405486,0.644496223,2.516780808,-3.161277031,0,0,0,0,0,0
1.2726546772022826,-2.526419878,-3.799175882,0.6268826,2.535915279,-3.16279788,0,0,0,0,0,0
1.3111432468667266,-2.542848371,-3.854059237,0.615852562,2.582601242,-3.198453804,0,0,0,0,0,0
1.2979196990274944,-2.55006835,-3.848045597,0.626074326,2.572982648,-3.199056974,0,0,0,0,0,0
1.259646548,-2.571629928,-3.831340163,0.65599169,2.545493356,-3.201485045,0,0,0,0,0,0
1.2072999841249756,-2.620853338,-3.828243257,0.706776677,2.51777162,-3.224548298,0,0,0,0,0,0
1.191934190397936,-2.658660208,-3.850680332,0.733363009,2.521307261,-3.25467027,0,0,0,0,0,0
1.1822007412888966,-2.659062131,-3.841329621,0.738430695,2.511765181,-3.250195876,0,0,0,0,0,0
1.1878179721620539,-2.60502022,-3.792906105,0.708601124,2.490362039,-3.198963163,0,0,0,0,0,0
1.230652052027453,-2.499930016,-3.73066344,0.634638982,2.480657746,-3.115296728,0,0,0,0,0,0
1.254440902894889,-2.409469458,-3.664001757,0.577514278,2.45922133,-3.036735608,0,0,0,0,0,0
1.2622186402818099,-2.361180049,-3.62346213,0.549480704,2.442840385,-2.992321089,0,0,0,0,0,0
1.2458973815555883,-2.31485984,-3.560843587,0.534481229,2.403370484,-2.937851714,0,0,0,0,0,0
1.1826800876456338,-2.294472387,-3.477260182,0.555896149,2.329970135,-2.885866284,0,0,0,0,0,0
1.0672519593689116,-2.313775407,-3.38108211,0.623261724,2.224167035,-2.847428758,0,0,0,0,0,0
0.8530961365806503,-2.411257855,-3.264350506,0.779080859,2.058723321,-2.83780418,0,0,0,0,0,0
0.6522946139719963,-2.490621899,-3.142972614,0.919163643,1.897633614,-2.816797256,0,0,0,0,0,0
0.4689575513603695,-2.491192992,-2.960247104,1.011117721,1.714602328,-2.725720048,0,0,0,0,0,0
0.2802156757334841,-2.526977978,-2.807236186,1.123381151,1.543725931,-2.667107082,0,0,0,0,0,0
0.1448726825677682,-2.54886553,-2.693801215,1.201996424,1.419336949,-2.621333373,0,0,0,0,0,0
0.13018942447898516,-2.454474621,-2.584740184,1.162142598,1.357464804,-2.519607402,0,0,0,0,0,0
0.20844772529110253,-2.341949407,-2.550473985,1.066750841,1.379460855,-2.446211696,0,0,0,0,0,0
0.3414154695933863,-2.265616481,-2.607135193,0.962100506,1.474275331,-2.436375837,0,0,0,0,0,0
0.501388454,-2.250607099,-2.752122633,0.874609322,1.626755544,-2.501364866,0,0,0,0,0,0
0.7065189722397052,-2.204379319,-2.91099791,0.748930173,1.808758441,-2.557688615,0,0,0,0,0,0
0.9779984936900874,-2.041334209,-3.019407782,0.531667858,1.998703138,-2.530370995,0,0,0,0,0,0
1.1914550647188213,-1.936499906,-3.128017493,0.372522421,2.159736279,-2.5322587,0,0,0,0,0,0
1.3332195993411182,-1.96640345,-3.299684882,0.316591925,2.316452241,-2.633044166,0,0,0,0,0,0
1.4152853822191689,-2.069506676,-3.484916161,0.327110647,2.450100771,-2.777211419,0,0,0,0,0,0
1.4808041042112403,-2.209715249,-3.69062253,0.364455572,2.585713317,-2.95016889,0,0,0,0,0,0
1.5656963521322445,-2.335623433,-3.901414558,0.384963541,2.733555455,-3.118518996,0,0,0,0,0,0
1.6166209787575343,-2.430501322,-4.04721294,0.406940171,2.831916959,-3.238857131,0,0,0,0,0,0
1.650234136,-2.50377927,-4.154095178,0.426772567,2.902164657,-3.328937224,0,0,0,0,0,0
1.6950425692254862,-2.527553176,-4.22268011,0.416255303,2.95886134,-3.375116643,0,0,0,0,0,0
1.689476499,-2.529808685,-4.219340335,0.420166093,2.954408417,-3.37457451,0,0,0,0,0,0
1.6752690331848745,-2.574427106,-4.249750585,0.449579036,2.962509809,-3.412088845,0,0,0,0,0,0
1.6944023906962418,-2.614553924,-4.309028739,0.460075767,3.001715565,-3.461791332,0,0,0,0,0,0
1.6403120001373102,-2.618142028,-4.258522246,0.488915014,2.949417123,-3.438332137,0,0,0,0,0,0
1.5479917662845437,-2.628151324,-4.176221085,0.540079779,2.862106426,-3.402186205,0,0,0,0,0,0
1.5007187684029675,-2.65153088,-4.152330064,0.575406056,2.826524416,-3.401930472,0,0,0,0,0,0
1.4564571877396728,-2.657135508,-4.113692298,0.60033916,2.785074743,-3.385413903,0,0,0,0,0,0
1.4347044286048098,-2.596084918,-4.030871356,0.580690245,2.732787892,-3.313478137,0,0,0,0,0,0
1.425311998783133,-2.517996809,-3.94337153,0.546342405,2.684341765,-3.23068417,0,0,0,0,0,0
1.3922581439057178,-2.502774774,-3.895140862,0.555258315,2.643699503,-3.198957818,0,0,0,0,0,0
1.362498929981922,-2.505300684,-3.867898494,0.571400877,2.615198712,-3.186599589,0,0,0,0,0,0
1.3525598676209232,-2.472829041,-3.825458346,0.560134587,2.589009107,-3.149143693,0,0,0,0,0,0
1.3401588101200268,-2.463220435,-3.803437925,0.561530812,2.571798367,-3.13332918,0,0,0,0,0,0
1.2917578614156489,-2.466279167,-3.758122898,0.587260653,2.52494038,-3.112201032,0,0,0,0,0,0
1.2738788353687645,-2.495979633,-3.769930174,0.611050399,2.521904505,-3.132954904,0,0,0,0,0,0
1.299008878336857,-2.516102152,-3.815180683,0.608546637,2.55709478,-3.165641417,0,0,0,0,0,0
1.3173319911394406,-2.496676489,-3.814106601,0.589672249,2.565719296,-3.155391545,0,0,0,0,0,0
1.2956963061107325,-2.467512471,-3.76327098,0.585908082,2.529483643,-3.115391725,0,0,0,0,0,0
1.284811837628213,-2.465149952,-3.750017034,0.590169057,2.517414436,-3.107583493,0,0,0,0,0,0
1.299920420892571,-2.454271988,-3.754292093,0.577175784,2.527106257,-3.104282041,0,0,0,0,0,0
1.2753093825093735,-2.428184971,-3.703552933,0.576437794,2.489431158,-3.065868952,0,0,0,0,0,0
1.2483956319666814,-2.474649296,-3.723109954,0.613126832,2.485752793,-3.098879625,0,0,0,0,0,0
1.269299787630262,-2.547641232,-3.817027369,0.639170722,2.543163578,-3.182334301,0,0,0,0,0,0
1.2787125000761435,-2.557321992,-3.836097081,0.639304746,2.55740479,-3.196709536,0,0,0,0,0,0
1.282654331895346,-2.516534783,-3.799259782,0.616940226,2.540957057,-3.157897283,0,0,0,0,0,0
1.2726019790128733,-2.484241963,-3.756919182,0.605819992,2.514760581,-3.120580573,0,0,0,0,0,0
1.2666206035118603,-2.44701393,-3.713708423,0.590196663,2.490164513,-3.080361177,0,0,0,0,0,0
1.2836203022496884,-2.442903631,-3.726619785,0.579641664,2.505120044,-3.084761708,0,0,0,0,0,0
1.268712815,-2.486530634,-3.755350051,0.60890891,2.512031433,-3.120940343,0,0,0,0,0,0
1.2855674837732658,-2.485010623,-3.770681069,0.599721569,2.528124276,-3.127845846,0,0,0,0,0,0
1.2835161209608723,-2.470687902,-3.754269331,0.593585891,2.518892726,-3.112478617,0,0,0,0,0,0
1.2217871320701048,-2.486148628,-3.70802931,0.632180748,2.464908221,-3.097088969,0,0,0,0,0,0
1.2063475610728267,-2.507272024,-3.713739556,0.650462231,2.460043559,-3.11050579,0,0,0,0,0,0
1.2386943868326676,-2.515479207,-3.754243849,0.63839241,2.496469118,-3.134861528,0,0,0,0,0,0
1.2348311990915353,-2.479959394,-3.714891312,0.622564097,2.474861255,-3.097425353,0,0,0,0,0,0
1.2182177275074748,-2.468240498,-3.686550913,0.625011385,2.45238432,-3.077395706,0,0,0,0,0,0
1.223631842681782,-2.460729009,-3.684414553,0.618548583,2.454023198,-3.072571781,0,0,0,0,0,0
1.2592357352083032,-2.44533304,-3.704638877,0.593048652,2.481937306,-3.074985958,0,0,0,0,0,0
1.259859427724879,-2.471096481,-3.731045532,0.605618527,2.49545248,-3.101071007,0,0,0,0,0,0
1.2061522894599774,-2.525488915,-3.731707654,0.659668313,2.468929972,-3.128598284,0,0,0,0,0,0
1.2103274267156796,-2.542294715,-3.752717508,0.665983644,2.481522467,-3.147506111,0,0,0,0,0,0
1.235202762065937,-2.462033255,-3.697369402,0.613415246,2.466286082,-3.079701328,0,0,0,0,0,0
1.2176768303241052,-2.401176843,-3.618947783,0.591750007,2.418312307,-3.010062313,0,0,0,0,0,0
1.193001995043948,-2.444487516,-3.637558543,0.625742761,2.415280269,-3.04102303,0,0,0,0,0,0
1.2091266503438873,-2.438180014,-3.647367116,0.614526682,2.428246883,-3.042773565,0,0,0,0,0,0
1.2276087976001406,-2.43287607,-3.660530497,0.602633636,2.444069647,-3.046703284,0,0,0,0,0,0
1.2221912090968812,-2.470040589,-3.692325253,0.62392469,2.457258231,-3.081182921,0,0,0,0,0,0
1.236226328664027,-2.49415835,-3.73046296,0.628966011,2.483344645,-3.112310655,0,0,0,0,0,0
1.254557570042611,-2.498779888,-3.753380653,0.622111159,2.503969112,-3.126080271,0,0,0,0,0,0
1.2488146301513967,-2.46544085,-3.714359841,0.60831311,2.481587235,-3.089900346,0,0,0,0,0,0
1.244748342303347,-2.442150655,-3.687008396,0.598701156,2.465878369,-3.064579526,0,0,0,0,0,0
1.2541098019145782,-2.449648509,-3.703821075,0.597769354,2.478965438,-3.076734792,0,0,0,0,0,0
1.2702251101602573,-2.434103723,-3.704412006,0.581939306,2.487318558,-3.069257864,0,0,0,0,0,0
1.2339266171776944,-2.414160942,-3.648173235,0.590117162,2.441049926,-3.031167088,0,0,0,0,0,0
1.1975087362724872,-2.421606579,-3.619173615,0.612048921,2.408341176,-3.020390097,0,0,0,0,0,0
1.189068531353085,-2.453349152,-3.642488134,0.63214031,2.415778333,-3.047918643,0,0,0,0,0,0
1.2054411164353327,-2.478876147,-3.684409044,0.636717515,2.44492508,-3.081642595,0,0,0,0,0,0
1.2129939446282276,-2.470143174,-3.683245566,0.628574615,2.448119755,-3.07669437,0,0,0,0,0,0
1.1769692007325099,-2.45542724,-3.632513013,0.63922902,2.404741107,-3.043970126,0,0,0,0,0,0
1.1797102513573923,-2.441135753,-3.620949876,0.630712751,2.400330064,-3.031042814,0,0,0,0,0,0
1.2211653158725264,-2.423515478,-3.644731312,0.601175081,2.432948314,-3.034123395,0,0,0,0,0,0
1.2276440342259596,-2.393767583,-3.621487932,0.583061774,2.424565983,-3.007627757,0,0,0,0,0,0
1.2027193980360094,-2.393199935,-3.596009544,0.595240268,2.399364471,-2.99460474,0,0,0,0,0,0
1.169489296780654,-2.418015642,-3.587571975,0.624263172,2.378530636,-3.002793808,0,0,0,0,0,0
1.160613815329405,-2.45156931,-3.612251922,0.645477747,2.386432869,-3.031910616,0,0,0,0,0,0
1.199458088,-2.46624802,-3.665782025,0.633394966,2.432620056,-3.066015023,0,0,0,0,0,0
1.2343106840581213,-2.429911012,-3.66428719,0.597800164,2.449298937,-3.047099101,0,0,0,0,0,0
1.1944662195032074,-2.395657983,-3.590231948,0.600595882,2.392349084,-2.992944966,0,0,0,0,0,0
1.180848645641103,-2.411982493,-3.592957712,0.615566924,2.386903179,-3.002470103,0,0,0,0,0,0
1.192672819249259,-2.411576783,-3.604329607,0.609451982,2.398501213,-3.007953195,0,0,0,0,0,0
1.1935859736850838,-2.421836996,-3.615510274,0.614125511,2.404548124,-3.018673635,0,0,0,0,0,0
1.1808190738659108,-2.434252616,-3.615161167,0.626716771,2.397990121,-3.024706892,0,0,0,0,0,0
1.147100300979724,-2.429111281,-3.576275644,0.64100549,2.361687972,-3.002693462,0,0,0,0,0,0
1.1686288004193233,-2.417089262,-3.585789966,0.624230231,2.377209383,-3.001439614,0,0,0,0,0,0
1.181606284014037,-2.382090861,-3.563776004,0.600242288,2.372691144,-2.972933433,0,0,0,0,0,0
1.1566936856692924,-2.386737482,-3.543514653,0.615021898,2.35010417,-2.965126068,0,0,0,0,0,0
1.153364233106734,-2.377118164,-3.530534581,0.611876965,2.341949407,-2.953826372,0,0,0,0,0,0
1.162700200922997,-2.360453603,-3.523186047,0.598876701,2.342943124,-2.941819825,0,0,0,0,0,0
1.1646982782801372,-2.360412929,-3.5251745,0.597857326,2.344936389,-2.942793715,0,0,0,0,0,0
1.1627639795490692,-2.366320092,-3.529152175,0.601778056,2.345958077,-2.947736133,0,0,0,0,0,0
1.1596370875532347,-2.388368124,-3.54808106,0.614365518,2.353859074,-2.968224592,0,0,0,0,0,0
1.1431569600874316,-2.424517611,-3.567747374,0.640680325,2.355452167,-2.996132493,0,0,0,0,0,0
1.1474218780049779,-2.396303826,-3.543780131,0.624440974,2.345601005,-2.970041979,0,0,0,0,0,0
1.202226509986652,-2.341301022,-3.543607804,0.569537256,2.372917157,-2.942454413,0,0,0,0,0,0
1.2186579911586537,-2.305191965,-3.523980944,0.543266987,2.371319468,-2.914586455,0,0,0,0,0,0
1.1855496008461386,-2.317421454,-3.503064648,0.565935926,2.344307124,-2.910243051,0,0,0,0,0,0
1.17911354,-2.326919597,-3.506106967,0.573903029,2.342610253,-2.916513282,0,0,0,0,0,0
1.1405632394462681,-2.320214532,-3.46087727,0.589825646,2.300720255,-2.890545901,0,0,0,0,0,0
1.1002072885894776,-2.334084327,-3.434371848,0.616938519,2.267289569,-2.884228088,0,0,0,0,0,0
1.0992830722847768,-2.348368748,-3.447713648,0.624542838,2.27349836,-2.898041198,0,0,0,0,0,0
1.1068074038460185,-2.331094202,-3.437979751,0.612143399,2.272393578,-2.884536977,0,0,0,0,0,0
1.1262956782262876,-2.288053473,-3.414414378,0.580878897,2.270355028,-2.851233925,0,0,0,0,0,0
1.1350169422544019,-2.272868835,-3.407968443,0.568925946,2.271492693,-2.840418639,0,0,0,0,0,0
1.1255666793847985,-2.264082158,-3.389723954,0.569257739,2.257645317,-2.826903056,0,0,0,0,0,0
1.1025884250009799,-2.261682671,-3.364313446,0.579547123,2.233450935,-2.812998058,0,0,0,0,0,0
1.116715188731064,-2.276021824,-3.392789562,0.579653317,2.254752375,-2.834405693,0,0,0,0,0,0
1.1322039339846357,-2.267196314,-3.399469662,0.56749619,2.265836798,-2.833332988,0,0,0,0,0,0
1.0977057660322869,-2.289732655,-3.387496946,0.596013444,2.242601356,-2.8386148,0,0,0,0,0,0
1.0650403073804124,-2.311915282,-3.377066512,0.623437487,2.22105341,-2.844490897,0,0,0,0,0,0
1.080850819171887,-2.275694558,-3.356645814,0.597421869,2.218748317,-2.816170186,0,0,0,0,0,0
1.0834735574899508,-2.249974762,-3.333530312,0.583250602,2.208501935,-2.791752537,0,0,0,0,0,0
1.1217526547375964,-2.241316859,-3.363161827,0.559782102,2.242457241,-2.802239343,0,0,0,0,0,0
1.176474902356462,-2.214751967,-3.391293479,0.519138532,2.283884191,-2.803022723,0,0,0,0,0,0
1.153342013,-2.203778714,-3.357160499,0.525218351,2.255251256,-2.780469606,0,0,0,0,0,0
1.1064584092941787,-2.191269871,-3.297788312,0.542405731,2.20212336,-2.744529091,0,0,0,0,0,0
1.073785415,-2.165344991,-3.239220158,0.545779788,2.156502786,-2.702282574,0,0,0,0,0,0
1.0594009075018185,-2.180060185,-3.239558945,0.560329639,2.149479926,-2.709809565,0,0,0,0,0,0
1.0581546447674648,-2.175108789,-3.233365778,0.558477072,2.145760212,-2.704237283,0,0,0,0,0,0
1.0530806816902594,-2.161792431,-3.214952893,0.554355874,2.134016788,-2.688372662,0,0,0,0,0,0
1.0698658773822085,-2.185561667,-3.255501229,0.557847895,2.162683553,-2.720531448,0,0,0,0,0,0
1.079294593035647,-2.176613208,-3.255976947,0.548659307,2.16763577,-2.716295077,0,0,0,0,0,0
1.0854373133033277,-2.158623968,-3.244116872,0.536593328,2.164777093,-2.70137042,0,0,0,0,0,0
1.0554833616189851,-2.179323649,-3.234865937,0.561920144,2.145174649,-2.707094793,0,0,0,0,0,0
1.0303153161427492,-2.19453305,-3.224899065,0.582108867,2.127607191,-2.709716058,0,0,0,0,0,0
1.0315740747157949,-2.215435717,-3.247053765,0.591930821,2.13931392,-2.731244741,0,0,0,0,0,0
1.0280090236434094,-2.211806402,-3.23987217,0.591898689,2.133940597,-2.725839286,0,0,0,0,0,0
1.051612934947894,-2.164962357,-3.216659986,0.556674711,2.13413646,-2.690811171,0,0,0,0,0,0
1.0777457257579284,-2.123354353,-3.201185368,0.522804314,2.139465547,-2.662269861,0,0,0,0,0,0
1.074107735620856,-2.095564529,-3.169735067,0.510728397,2.121921402,-2.632649798,0,0,0,0,0,0
1.078376889112754,-2.104231383,-3.182682156,0.512927247,2.130529523,-2.64345677,0,0,0,0,0,0
1.1104683749697661,-2.13197078,-3.242534668,0.510751203,2.176501521,-2.687252724,0,0,0,0,0,0
1.0713101792519446,-2.145091888,-3.216490413,0.536890855,2.143900296,-2.680791151,0,0,0,0,0,0
0.9981195527413952,-2.179084002,-3.177289448,0.590482224,2.0877045,-2.678186725,0,0,0,0,0,0
1.0259010876618806,-2.201363211,-3.227325083,0.587731062,2.126613085,-2.714344147,0,0,0,0,0,0
1.0833414294281003,-2.168546198,-3.251964942,0.542602384,2.167653186,-2.71025557,0,0,0,0,0,0
1.0861779436188916,-2.160818717,-3.24708651,0.537320386,2.166632227,-2.703952613,0,0,0,0,0,0
1.0631284982139702,-2.162383988,-3.225562056,0.549627745,2.144345277,-2.693973022,0,0,0,0,0,0
1.070611680160791,-2.158088418,-3.22876715,0.543738369,2.149689415,-2.693427784,0,0,0,0,0,0
1.0884870543457266,-2.168104893,-3.256659744,0.53980892,2.172573399,-2.712382319,0,0,0,0,0,0
1.1162922324680864,-2.197008867,-3.313365469,0.540358317,2.21482885,-2.755187168,0,0,0,0,0,0
1.100991588929801,-2.251240476,-3.352327522,0.575124443,2.226659556,-2.801783999,0,0,0,0,0,0
1.0345350828026445,-2.299694624,-3.334263504,0.632579771,2.184399293,-2.816979064,0,0,0,0,0,0
0.9937301092902038,-2.294020445,-3.287795694,0.650145168,2.140762902,-2.79090807,0,0,0,0,0,0
0.9960055274612035,-2.279524391,-3.275624262,0.641759432,2.135814895,-2.777574326,0,0,0,0,0,0
1.038677615923445,-2.30418604,-3.34291174,0.632754212,2.190794678,-2.82354889,0,0,0,0,0,0
1.0652020417522852,-2.320864157,-3.386103023,0.627831057,2.225652533,-2.85348359,0,0,0,0,0,0
1.0612838671412186,-2.305606977,-3.366962053,0.622161555,2.21412296,-2.836284515,0,0,0,0,0,0
1.0903035193840172,-2.308964349,-3.399339395,0.609330415,2.244821457,-2.854151872,0,0,0,0,0,0
1.1036853028088314,-2.36039291,-3.464130271,0.628353804,2.283907787,-2.912261591,0,0,0,0,0,0
1.0788020652844335,-2.433730186,-3.512598252,0.67746406,2.295700159,-2.973164219,0,0,0,0,0,0
1.1008580055598556,-2.436480326,-3.537427828,0.66781116,2.319142917,-2.986954077,0,0,0,0,0,0
1.1533887418131468,-2.397671119,-3.551129826,0.622141189,2.352259284,-2.974400473,0,0,0,0,0,0
1.164439806062317,-2.387818963,-3.552340414,0.611689578,2.35839011,-2.970079688,0,0,0,0,0,0
1.1502039572913518,-2.408426981,-3.558750207,0.629111512,2.354477082,-2.983588594,0,0,0,0,0,0
1.159923702304126,-2.437666525,-3.59768783,0.638871411,2.378805766,-3.017677177,0,0,0,0,0,0
1.204787296,-2.440910119,-3.645766376,0.618061412,2.425276836,-3.043338248,0,0,0,0,0,0
1.2415987928114254,-2.429717381,-3.671380977,0.594059294,2.456489885,-3.050549179,0,0,0,0,0,0
1.1601387418607534,-2.458937033,-3.619119788,0.649399145,2.389629265,-3.03902841,0,0,0,0,0,0
1.1089934769079723,-2.512336881,-3.621385453,0.701671702,2.365189465,-3.066861167,0,0,0,0,0,0
1.1536380551376593,-2.485325947,-3.639006993,0.665843946,2.396322524,-3.06216647,0,0,0,0,0,0
1.1709971108696726,-2.45877694,-3.629825334,0.643889915,2.400411222,-3.044301137,0,0,0,0,0,0
1.174135626,-2.471015221,-3.645234271,0.648439798,2.409684949,-3.058124746,0,0,0,0,0,0
1.1772543334454943,-2.463016928,-3.640328663,0.642881297,2.408791498,-3.051672795,0,0,0,0,0,0
1.1861502495593308,-2.468941923,-3.655141112,0.641395837,2.420645681,-3.062041517,0,0,0,0,0,0
1.2084851303001038,-2.494135491,-3.702688427,0.64282518,2.455586778,-3.098411959,0,0,0,0,0,0
1.203918548989209,-2.530407099,-3.734380642,0.663244275,2.469149595,-3.13239387,0,0,0,0,0,0
1.178764378142648,-2.565837929,-3.744652201,0.693536776,2.46170829,-3.155245065,0,0,0,0,0,0
1.209251172614184,-2.559919178,-3.769242045,0.675334003,2.489246609,-3.164580611,0,0,0,0,0,0
1.2666075864126267,-2.53370579,-3.800395152,0.633549102,2.533501369,-3.167050471,0,0,0,0,0,0
1.3207046764606303,-2.490829611,-3.811587444,0.585062467,2.56614606,-3.151208528,0,0,0,0,0,0
1.2628731636791857,-2.47778416,-3.740712696,0.607455498,2.50179293,-3.109248428,0,0,0,0,0,0
1.2014711297899536,-2.501762038,-3.703326988,0.650145454,2.452399059,-3.102544513,0,0,0,0,0,0
1.2333786451426594,-2.507301814,-3.740750468,0.636961584,2.487064557,-3.124026141,0,0,0,0,0,0
1.2340271495558905,-2.532765859,-3.766872414,0.649369355,2.500449782,-3.149819136,0,0,0,0,0,0
1.1986900083497016,-2.565934993,-3.764721714,0.683622492,2.481705861,-3.165328353,0,0,0,0,0,0
1.204995011765902,-2.55573902,-3.760800727,0.675372004,2.48289787,-3.158269874,0,0,0,0,0,0
1.2032288912461415,-2.52395261,-3.727259044,0.660361859,2.465243968,-3.125605827,0,0,0,0,0,0
1.2170090961448412,-2.493417773,-3.710493701,0.638204339,2.463751399,-3.101955737,0,0,0,0,0,0
1.2432595255477397,-2.484861386,-3.728181785,0.62080093,2.485720655,-3.106521585,0,0,0,0,0,0
1.2764932728665033,-2.483962301,-3.76052032,0.603734514,2.518506796,-3.12224131,0,0,0,0,0,0
1.310861626633058,-2.491771007,-3.802751556,0.59045469,2.556806592,-3.147261282,0,0,0,0,0,0
1.3023838628410074,-2.502247509,-3.804740788,0.599931823,2.553562325,-3.153494148,0,0,0,0,0,0
1.2490667420262116,-2.51684108,-3.765974136,0.633887169,2.507520439,-3.141407608,0,0,0,0,0,0
1.224235554915098,-2.543561191,-3.767868495,0.659662818,2.496052025,-3.155714843,0,0,0,0,0,0
1.2229108410476277,-2.536591712,-3.759577531,0.656840436,2.491244186,-3.148084622,0,0,0,0,0,0
1.2387105144555146,-2.51325897,-3.752065258,0.637274228,2.495387886,-3.132662114,0,0,0,0,0,0
1.2705984409500355,-2.495869914,-3.766521407,0.612635736,2.518559924,-3.13119566,0,0,0,0,0,0
1.2729372068301978,-2.479445628,-3.752414907,0.603254211,2.512676057,-3.115930267,0,0,0,0,0,0
1.2670831042576949,-2.470968558,-3.738133967,0.601942727,2.502608536,-3.104551262,0,0,0,0,0,0
1.2536377872965716,-2.475157425,-3.72885606,0.610759819,2.491246924,-3.102006743,0,0,0,0,0,0
1.2394529111279173,-2.515896772,-3.755415645,0.638221931,2.497434278,-3.135656209,0,0,0,0,0,0
1.2304436450136933,-2.552987984,-3.783518365,0.66127217,2.506981005,-3.168253175,0,0,0,0,0,0
1.2292656167561355,-2.539811561,-3.769125543,0.655272972,2.49919558,-3.154468552,0,0,0,0,0,0
1.2529497069339657,-2.50121687,-3.754257275,0.624133582,2.503603491,-3.127737072,0,0,0,0,0,0
1.2853381967658437,-2.46826387,-3.753724247,0.591462837,2.519531222,-3.110994059,0,0,0,0,0,0
1.2484295387960946,-2.475382083,-3.723891867,0.613476272,2.486160703,-3.099636975,0,0,0,0,0,0
1.2196818312166744,-2.495708226,-3.715480714,0.638013198,2.467581273,-3.10559447,0,0,0,0,0,0
1.275476373514261,-2.506098206,-3.781659256,0.615310916,2.528567815,-3.143878731,0,0,0,0,0,0
1.2790831309567456,-2.535717459,-3.814894048,0.628317164,2.546988589,-3.175305754,0,0,0,0,0,0
1.225757501997655,-2.567356602,-3.793237072,0.67079955,2.509497287,-3.180296837,0,0,0,0,0,0
1.230971075182396,-2.546991893,-3.778064267,0.658010409,2.504517671,-3.16252808,0,0,0,0,0,0
1.2718315021826982,-2.481385696,-3.753293566,0.604777097,2.512562534,-3.117339631,0,0,0,0,0,0
1.2618131373008405,-2.463184081,-3.725098512,0.600685472,2.493455824,-3.094141297,0,0,0,0,0,0
1.2082060945907922,-2.452587381,-3.660877331,0.622190643,2.434541713,-3.056732356,0,0,0,0,0,0
1.208492339730884,-2.432797783,-3.641368831,0.612152722,2.424930585,-3.037083307,0,0,0,0,0,0
1.2369452811341841,-2.487017237,-3.724053779,0.625035978,2.48049953,-3.105535508,0,0,0,0,0,0
1.2338780698005591,-2.532707793,-3.766627617,0.649414862,2.500252843,-3.149667705,0,0,0,0,0,0
1.2368763416188984,-2.540392898,-3.777332443,0.651758278,2.507104392,-3.158862671,0,0,0,0,0,0
1.2247676494272242,-2.574238246,-3.79908876,0.674735298,2.511928205,-3.186663503,0,0,0,0,0,0
1.2359635044263124,-2.556260828,-3.792260919,0.660148662,2.514112212,-3.174260874,0,0,0,0,0,0
1.272548912749836,-2.512061508,-3.784701518,0.619756298,2.528625216,-3.148381513,0,0,0,0,0,0
1.284892146523302,-2.508747847,-3.79375692,0.61192785,2.539324533,-3.151252383,0,0,0,0,0,0
1.3110012638363218,-2.480926911,-3.792004388,0.584962824,2.551502826,-3.136465649,0,0,0,0,0,0
1.308593901939259,-2.447790529,-3.756451058,0.569598314,2.53252248,-3.102120794,0,0,0,0,0,0
1.2906255668092521,-2.47095032,-3.761658674,0.590162377,2.52614212,-3.116304497,0,0,0,0,0,0
1.2814321901292878,-2.524958284,-3.80647823,0.621763047,2.54395521,-3.165718257,0,0,0,0,0,0
1.2180653810226936,-2.572664024,-3.790792312,0.677299321,2.504428847,-3.181728168,0,0,0,0,0,0
1.171888929505806,-2.549148815,-3.721118571,0.688629943,2.44650375,-3.135133693,0,0,0,0,0,0
1.2235404729103088,-2.497618314,-3.721247234,0.63703892,2.472393854,-3.109432774,0,0,0,0,0,0
1.250266872090206,-2.480974803,-3.731317447,0.615353965,2.49079216,-3.106146125,0,0,0,0,0,0
1.2242605850926285,-2.467527236,-3.691862573,0.621633326,2.458061579,-3.079694905,0,0,0,0,0,0
1.2455697440842908,-2.467565815,-3.713238588,0.610998035,2.479404166,-3.090402201,0,0,0,0,0,0
1.2660381774129517,-2.490844828,-3.756999601,0.612403325,2.511518889,-3.123922215,0,0,0,0,0,0
1.242195927772447,-2.528700651,-3.771004002,0.643252362,2.506599965,-3.149852327,0,0,0,0,0,0
1.237667290266854,-2.57206575,-3.809820834,0.66719923,2.523744062,-3.190943292,0,0,0,0,0,0
1.2708730619779516,-2.559303104,-3.830248398,0.644215021,2.55056073,-3.194775751,0,0,0,0,0,0
1.2936359136518618,-2.503869601,-3.797589883,0.605116844,2.545612898,-3.150729742,0,0,0,0,0,0
1.267481809728164,-2.484823018,-3.752388882,0.608670604,2.509935346,-3.11860595,0,0,0,0,0,0
1.2388053202479699,-2.478278417,-3.717165248,0.619736548,2.477985284,-3.097721832,0,0,0,0,0,0
1.2687129641297357,-2.467947093,-3.736753693,0.599617064,2.502733329,-3.102350393,0,0,0,0,0,0
1.2417794746909665,-2.470431441,-3.712280959,0.614325983,2.477030217,-3.0913562,0,0,0,0,0,0
1.179315786220861,-2.502972071,-3.682375739,0.661828142,2.430845763,-3.092673905,0,0,0,0,0,0
1.1900323509293498,-2.549109874,-3.739211303,0.679538762,2.464621827,-3.144160588,0,0,0,0,0,0
1.201273293854276,-2.558098075,-3.759402631,0.678412391,2.480337962,-3.158750353,0,0,0,0,0,0
1.1940719581720192,-2.541137264,-3.735288532,0.673532653,2.464680245,-3.138212898,0,0,0,0,0,0
1.2258635855449187,-2.511470596,-3.737427901,0.642803505,2.481645743,-3.124449249,0,0,0,0,0,0
1.242890281,-2.49159505,-3.734541965,0.624352385,2.488716123,-3.113068508,0,0,0,0,0,0
1.2077953589893624,-2.501969807,-3.70981488,0.647087224,2.45880512,-3.105892344,0,0,0,0,0,0
1.2273803915375436,-2.492518918,-3.71995513,0.632569263,2.473667761,-3.106237024,0,0,0,0,0,0
1.248763151,-2.498761673,-3.747593341,0.624999261,2.498178246,-3.123177507,0,0,0,0,0,0
1.1905722455857142,-2.562084991,-3.752747213,0.685756373,2.471659729,-3.157416102,0,0,0,0,0,0
1.1562913929380663,-2.586964844,-3.74334525,0.715336725,2.449818321,-3.165155047,0,0,0,0,0,0
1.2001859302085867,-2.548969148,-3.74923493,0.674391609,2.47471043,-3.149102039,0,0,0,0,0,0
1.2344348683014847,-2.502360634,-3.736874582,0.633962883,2.485654725,-3.119617608,0,0,0,0,0,0
1.2533074866356138,-2.492473599,-3.745867818,0.619583056,2.499587652,-3.119170708,0,0,0,0,0,0
1.2732571500895997,-2.496678105,-3.770009917,0.611710477,2.521633534,-3.133344011,0,0,0,0,0,0
1.2686233406781866,-2.495048914,-3.76372057,0.613212787,2.516171955,-3.129384742,0,0,0,0,0,0
1.2782225920469978,-2.500177212,-3.778453266,0.61097731,2.528337929,-3.139315239,0,0,0,0,0,0
1.2619580925280924,-2.55829852,-3.82031613,0.648170214,2.541137111,-3.189307325,0,0,0,0,0,0
1.1973647706715258,-2.63049405,-3.827931862,0.71656464,2.512648317,-3.229212956,0,0,0,0,0,0
1.1636308018600454,-2.597766469,-3.761482559,0.717067834,2.462556681,-3.179624514,0,0,0,0,0,0
1.181613366618194,-2.536571656,-3.718265347,0.677479144,2.449939357,-3.127418501,0,0,0,0,0,0
1.2239073830568479,-2.505629758,-3.729637297,0.640861188,2.47677234,-3.117633528,0,0,0,0,0,0
1.2561468612078435,-2.515042929,-3.771298187,0.629448034,2.513722524,-3.143170558,0,0,0,0,0,0
1.2547614081180631,-2.524612177,-3.779447257,0.634925384,2.517104332,-3.152029717,0,0,0,0,0,0
1.260596728303344,-2.513885321,-3.774579141,0.626644296,2.517587935,-3.144232231,0,0,0,0,0,0
1.2557878689298876,-2.529818596,-3.785690198,0.637015364,2.520739033,-3.157754397,0,0,0,0,0,0
1.2392529320889902,-2.554654235,-3.793971318,0.657700651,2.516612125,-3.174312776,0,0,0,0,0,0
1.213237588792278,-2.567457599,-3.780755058,0.677110005,2.496996323,-3.174106328,0,0,0,0,0,0
1.1825268037465657,-2.543459765,-3.726023749,0.680466481,2.454275277,-3.134741757,0,0,0,0,0,0
1.187192414112452,-2.505593702,-3.69285102,0.659200644,2.440021717,-3.099222361,0,0,0,0,0,0
1.1879945593615884,-2.50455229,-3.692647027,0.658278865,2.440320793,-3.098599659,0,0,0,0,0,0
1.200404945563912,-2.509161525,-3.709647933,0.65437829,2.455026439,-3.109404729,0,0,0,0,0,0
1.2130090812185765,-2.509831491,-3.722907525,0.648411205,2.467958303,-3.116369508,0,0,0,0,0,0
1.228092852599688,-2.521319779,-3.749474699,0.646613463,2.488783776,-3.135397239,0,0,0,0,0,0
1.2415561004709037,-2.557633754,-3.79927595,0.658038827,2.520416025,-3.178454852,0,0,0,0,0,0
1.231200649493686,-2.588253034,-3.819544891,0.678526192,2.52537277,-3.203898962,0,0,0,0,0,0
1.2149702662401165,-2.565768745,-3.780824012,0.675399239,2.497897139,-3.173296379,0,0,0,0,0,0
1.2244931959012935,-2.543690477,-3.768273953,0.65959864,2.496383575,-3.155982215,0,0,0,0,0,0
1.246630519111394,-2.532970314,-3.779675364,0.643169897,2.513152942,-3.156322839,0,0,0,0,0,0
1.2874802022492366,-2.516374779,-3.803925791,0.614447288,2.545702997,-3.160150285,0,0,0,0,0,0
1.324002226751692,-2.519900694,-3.843951473,0.597949233,2.58397685,-3.181926083,0,0,0,0,0,0
1.2932676064720856,-2.528917982,-3.822255802,0.617825188,2.557761704,-3.175586892,0,0,0,0,0,0
1.214560194144133,-2.554533145,-3.769200119,0.669986475,2.491880156,-3.161866632,0,0,0,0,0,0
1.180087237747373,-2.594298755,-3.774445837,0.707105758,2.477266538,-3.184372296,0,0,0,0,0,0
1.212835348007246,-2.575745931,-3.788630918,0.681455292,2.500733133,-3.182188424,0,0,0,0,0,0
1.237772712,-2.54343327,-3.781288887,0.652830279,2.5095308,-3.162361078,0,0,0,0,0,0
1.2441824961003665,-2.535452323,-3.779695002,0.645634914,2.511938749,-3.157573663,0,0,0,0,0,0
1.2344180583492137,-2.532111514,-3.766602808,0.648846728,2.500510433,-3.149357161,0,0,0,0,0,0
1.2243265873525349,-2.516108379,-3.740513108,0.645890896,2.482419848,-3.128310743,0,0,0,0,0,0
1.2350538042583554,-2.515217546,-3.750366063,0.640081871,2.492709934,-3.132791804,0,0,0,0,0,0
1.2260688042261223,-2.535477931,-3.761638446,0.654704563,2.493853625,-3.148558188,0,0,0,0,0,0
1.2080090522459204,-2.576355583,-3.78441186,0.684173265,2.496210456,-3.180383721,0,0,0,0,0,0
1.2112890769105735,-2.59061493,-3.801993186,0.689662927,2.506641131,-3.196304058,0,0,0,0,0,0
1.2158039344712785,-2.569135712,-3.785068347,0.676665889,2.500436141,-3.17710203,0,0,0,0,0,0
1.2229703458650074,-2.542726824,-3.765787477,0.659878239,2.494378912,-3.154257151,0,0,0,0,0,0
1.2625831806661583,-2.533828593,-3.796471963,0.635622706,2.529527572,-3.165150278,0,0,0,0,0,0
1.2722393402953485,-2.560266863,-3.832580645,0.644013762,2.552409993,-3.196423754,0,0,0,0,0,0
1.2643652304508313,-2.544059316,-3.808519383,0.639847043,2.536442307,-3.176289349,0,0,0,0,0,0
1.2638293245706167,-2.529857788,-3.793751744,0.633014232,2.528790534,-3.161804766,0,0,0,0,0,0
1.2411902831106305,-2.554365543,-3.795623352,0.65658763,2.518406818,-3.174994447,0,0,0,0,0,0
1.219380011862141,-2.576590747,-3.796044779,0.678605368,2.507712395,-3.186317763,0,0,0,0,0,0
1.2337268296484947,-2.560122463,-3.793918805,0.663197817,2.513822818,-3.177020634,0,0,0,0,0,0
1.285338343464274,-2.535445182,-3.82084704,0.625053419,2.553092692,-3.178146111,0,0,0,0,0,0
1.312431473,-2.525780547,-3.838279215,0.606674537,2.575355344,-3.182029881,0,0,0,0,0,0
1.2716254046815796,-2.529815843,-3.801526526,0.629095219,2.536575965,-3.165671184,0,0,0,0,0,0
1.2143846010980635,-2.540358996,-3.754782698,0.662987198,2.48458365,-3.147570847,0,0,0,0,0,0
1.2100586907381665,-2.552340174,-3.762473882,0.671140742,2.486266286,-3.157407028,0,0,0,0,0,0
1.2287226466693755,-2.583370715,-3.812207101,0.677324034,2.520464874,-3.197788908,0,0,0,0,0,0
1.202430804073109,-2.647066928,-3.849554082,0.722318062,2.525992443,-3.248310505,0,0,0,0,0,0
1.1510787048663385,-2.612289798,-3.763412497,0.730605547,2.457245601,-3.187851148,0,0,0,0,0,0
1.1800223472110023,-2.542395915,-3.722521184,0.681186784,2.451271765,-3.132458549,0,0,0,0,0,0
1.2305909647090754,-2.523673878,-3.754336954,0.646541457,2.492463959,-3.139005416,0,0,0,0,0,0
1.2437774666131378,-2.52390745,-3.767704771,0.640064992,2.505741119,-3.145806111,0,0,0,0,0,0
1.262782878465683,-2.560721463,-3.823571761,0.648969292,2.543177319,-3.192146612,0,0,0,0,0,0
1.2716875899347684,-2.547875997,-3.81966842,0.638094203,2.545678005,-3.183772208,0,0,0,0,0,0
1.271806039448888,-2.534084686,-3.805960423,0.631139323,2.538883231,-3.170022555,0,0,0,0,0,0
1.2463746183255497,-2.572565901,-3.818989403,0.663095641,2.532682011,-3.195777652,0,0,0,0,0,0
1.2233329918359823,-2.578426072,-3.801821719,0.67754654,2.512577355,-3.190123896,0,0,0,0,0,0
1.223741672,-2.57337702,-3.797181307,0.674817674,2.51046149,-3.185279164,0,0,0,0,0,0
1.2145916328026978,-2.569311855,-3.783965011,0.677360111,2.499278322,-3.176638433,0,0,0,0,0,0
1.236004044416032,-2.548979129,-3.785055239,0.656487542,2.510529642,-3.167017184,0,0,0,0,0,0
1.2476571807519754,-2.53215242,-3.77989088,0.64224762,2.51377403,-3.15602165,0,0,0,0,0,0
1.245580117155079,-2.531779101,-3.777481554,0.643099492,2.511530835,-3.154630328,0,0,0,0,0,0
1.2142326479598602,-2.558794846,-3.773126454,0.672281099,2.493679551,-3.16596065,0,0,0,0,0,0
1.2034620998545595,-2.600724438,-3.804262431,0.698631169,2.503862266,-3.202493435,0,0,0,0,0,0
1.235228978,-2.629604619,-3.864914499,0.69718782,2.550071738,-3.247259559,0,0,0,0,0,0
1.2228637719020747,-2.615745318,-3.838689995,0.696440773,2.530776884,-3.227217657,0,0,0,0,0,0
1.2096185778099537,-2.580250959,-3.789967707,0.685316191,2.499793143,-3.185109333,0,0,0,0,0,0
1.2261239300283824,-2.529451331,-3.755681936,0.651663701,2.490902933,-3.142566633,0,0,0,0,0,0
1.2300986991916216,-2.506362082,-3.736518138,0.638131691,2.483308419,-3.12144011,0,0,0,0,0,0
1.2447028738961683,-2.542530023,-3.787308584,0.648913575,2.516005729,-3.164919304,0,0,0,0,0,0
1.2631261419841668,-2.528331537,-3.791577926,0.632602698,2.527352034,-3.159954732,0,0,0,0,0,0
1.2641422859693034,-2.552010098,-3.816239958,0.643933906,2.540191122,-3.184125028,0,0,0,0,0,0
1.2388783441861984,-2.621153872,-3.860094187,0.691137764,2.549486265,-3.240624029,0,0,0,0,0,0
1.2514415708900226,-2.606771874,-3.858307835,0.677665152,2.554874703,-3.232539854,0,0,0,0,0,0
1.2874063583825255,-2.570546444,-3.858031826,0.641570043,2.572719092,-3.214289135,0,0,0,0,0,0
1.2982398344102386,-2.543560023,-3.841816226,0.622660094,2.57002803,-3.192688125,0,0,0,0,0,0
1.3155634224489392,-2.539081182,-3.854690939,0.61175888,2.585127181,-3.196886061,0,0,0,0,0,0
1.2596017758452085,-2.536238917,-3.795942501,0.638318571,2.527772138,-3.166090709,0,0,0,0,0,0
1.201047416121436,-2.535808321,-3.736987062,0.667380453,2.469017239,-3.136397691,0,0,0,0,0,0
1.2231212510497316,-2.566267295,-3.789518344,0.671573022,2.506319797,-3.177892819,0,0,0,0,0,0
1.2274724323276278,-2.614794733,-3.842359593,0.69366115,2.534916013,-3.228577163,0,0,0,0,0,0
1.2270679950781989,-2.618060483,-3.845190893,0.695496244,2.536129444,-3.231625688,0,0,0,0,0,0
1.2321011175617278,-2.590459033,-3.822612761,0.679178958,2.527356939,-3.206535897,0,0,0,0,0,0
1.204348813512511,-2.56176725,-3.766203708,0.678709218,2.485276261,-3.163985479,0,0,0,0,0,0
1.2173962910456082,-2.537338608,-3.75482201,0.659971159,2.486109151,-3.146080309,0,0,0,0,0,0
1.2280649517522273,-2.511819157,-3.739948038,0.641877103,2.484006495,-3.125883597,0,0,0,0,0,0
1.222817076,-2.523015482,-3.745875074,0.650099203,2.484346075,-3.134445278,0,0,0,0,0,0
1.2393090364761288,-2.56735743,-3.806721522,0.664024197,2.523015279,-3.187039476,0,0,0,0,0,0
1.237972683544392,-2.57928268,-3.817319813,0.670654998,2.527646248,-3.198301247,0,0,0,0,0,0
1.225338164043278,-2.591379266,-3.816797155,0.683020551,2.521067659,-3.204088211,0,0,0,0,0,0
1.2146665908548036,-2.57979814,-3.794561726,0.682565774,2.504614158,-3.187179933,0,0,0,0,0,0
1.207170126134545,-2.578764443,-3.786017966,0.685797159,2.496594046,-3.182391205,0,0,0,0,0,0
1.2131689501871639,-2.594434282,-3.807688927,0.690632666,2.510428938,-3.201061604,0,0,0,0,0,0
