Lead I,Lead II,Lead III
1.3957580871088013,-2.446351049,-3.842125422
1.4183418758308377,-2.402119108,-3.820559023
1.404650413815452,-2.411399728,-3.816121237
1.3812199717942364,-2.433290516,-3.814545222
1.3552001878226898,-2.471708934,-3.826991749
1.334866559318609,-2.546565722,-3.881509432
1.3505615160806939,-2.496654208,-3.847343779
1.3714112943882866,-2.406737513,-3.778285124
1.3697293497249712,-2.40512427,-3.774934297
1.3676013775997031,-2.423743444,-3.79144666
1.387449110064587,-2.428880604,-3.816403769
1.3821567340013703,-2.437464321,-3.819673327
1.3854324374827292,-2.471229897,-3.856748249
1.4070158338496133,-2.508908122,-3.916000761
1.4025686988941881,-2.503201028,-3.905837792
1.3932198886770408,-2.459379749,-3.85269184
1.3243244866259103,-2.441494438,-3.765899157
1.3210522678913479,-2.443046349,-3.764150164
1.348314533711951,-2.443890182,-3.792261251
1.3282786962202242,-2.43430084,-3.76263206
1.3137091230016211,-2.467626272,-3.78139669
1.3047219948304263,-2.529081486,-3.833850418
1.3217128867237933,-2.517714045,-3.8395026
1.352352164403443,-2.480638776,-3.833069792
1.3784755578911545,-2.451505819,-3.830039465
1.4345775992948042,-2.395202664,-3.829854694
1.4348637978156915,-2.385917129,-3.820889292
1.3519803097910936,-2.427757483,-3.779869292
1.327200187558896,-2.465844015,-3.793145482
1.29745098,-2.492777226,-3.790301828
1.2644783259362133,-2.529855676,-3.794421246
1.2796694647890507,-2.490726625,-3.770481204
1.313269549576073,-2.431149661,-3.744517699
1.331598182,-2.455550184,-3.787235863
1.3491448071694294,-2.470618739,-3.819862917
1.3512584886021088,-2.449870848,-3.8012263
1.2992374312139632,-2.465823162,-3.765134532
1.2833009526103047,-2.494140276,-3.777531032
1.3046583934744815,-2.53695169,-3.841688745
1.291207176222535,-2.524928848,-3.816221358
1.3015006903846054,-2.457668458,-3.759274619
1.3467107953048723,-2.473032068,-3.819801317
1.3507298374061543,-2.547945457,-3.898762228
1.2851892981921273,-2.553645369,-3.83888902
1.2407615544362736,-2.528025869,-3.768834864
1.2451779080141432,-2.50646583,-3.751730449
1.2343793949436865,-2.530808442,-3.765247731
1.2231162244663898,-2.558635136,-3.781846299
1.217214223851002,-2.520143134,-3.737448173
1.2134704567354837,-2.46854969,-3.682032773
1.2308771761663133,-2.486380155,-3.717302144
1.2144551109497668,-2.507676244,-3.722201866
1.1786426290015353,-2.511591095,-3.690309856
1.2194433823915478,-2.51718858,-3.736760305
1.2392173287617896,-2.557587266,-3.796906388
1.1984085625317062,-2.599459255,-3.797953892
1.1928911990087694,-2.577000661,-3.769978901
1.1818900300318935,-2.538620683,-3.720586907
1.1824651039686342,-2.547890197,-3.730469365
1.2126419079464417,-2.550144443,-3.762897271
1.2324103688950618,-2.48974078,-3.722224334
1.2227128170873305,-2.475715909,-3.69849501
1.2286666313657884,-2.522446384,-3.75121696
1.2217607888380693,-2.566462798,-3.788347321
1.2301938136445236,-2.514663924,-3.744917964
1.2716248293676666,-2.454340673,-3.726025709
1.2961049868926477,-2.469162485,-3.765337891
1.2679222786284463,-2.472193524,-3.740157884
1.2352015544485961,-2.473633126,-3.708887096
1.2520092992043201,-2.506627783,-3.758716318
1.2455219310465075,-2.533836885,-3.779433584
1.235184295,-2.550677296,-3.785933001
1.2562114002483062,-2.536623616,-3.792906921
1.2872525778556407,-2.4954352,-3.782742398
1.328124595073122,-2.483046066,-3.811224141
1.3389433239064659,-2.466483625,-3.805514936
1.343743445905421,-2.445412618,-3.789230981
1.348842184530598,-2.4653093,-3.814236347
1.335058721019525,-2.487403127,-3.822573413
1.3320952343756687,-2.488994354,-3.821184552
1.346207559326772,-2.510758841,-3.857064632
1.3618851417252753,-2.48967133,-3.851652314
1.3817067426089074,-2.464545797,-3.846326253
1.3162494177749964,-2.482603968,-3.798928376
1.3065082576750482,-2.451295352,-3.757892958
1.3583008264505556,-2.449401259,-3.80778717
1.3434000289492065,-2.477446688,-3.820900385
1.335851174923245,-2.503860709,-3.839766063
1.3236056315408367,-2.538733546,-3.862403217
1.3248705768590445,-2.512532825,-3.837459303
1.348648735460122,-2.441280086,-3.790001228
1.3363193421645037,-2.400823333,-3.737202734
1.3654711330081317,-2.425254024,-3.790768032
1.422976454108885,-2.464579457,-3.887603355
1.4277504504955496,-2.447977998,-3.875803551
1.4169293514912655,-2.449213779,-3.866236996
1.4318230142710449,-2.498663486,-3.930571472
1.4036653275781137,-2.50409508,-3.907847766
1.358904580695555,-2.463604309,-3.822576778
1.3582634650519567,-2.425297359,-3.783623031
1.3722365890370194,-2.441124368,-3.813460978
1.4031366649207924,-2.45060203,-3.853809291
1.4371655936302183,-2.436833315,-3.874022023
1.3887060565618468,-2.484119149,-3.872882548
1.3241096388375106,-2.524144676,-3.848323989
1.3132711708492528,-2.510164497,-3.823494093
1.3115957841115065,-2.481833505,-3.793508587
1.3301299477767363,-2.459293154,-3.78947216
1.3631302764141806,-2.475118902,-3.83828611
1.3612302366852977,-2.520149399,-3.881460787
1.3433385951785801,-2.500349363,-3.843742791
1.3568008228047934,-2.473240379,-3.830095747
1.3471909016798802,-2.509133406,-3.856418038
1.3336832780149526,-2.512071705,-3.845852026
1.3420033537126836,-2.420204632,-3.762269202
1.3631809297116773,-2.277677143,-3.640898837
1.3830243154839459,-2.19125333,-3.574330972
1.3491163574993896,-2.139572453,-3.488768817
1.233995664454833,-2.119344935,-3.353421178
1.0949500531134646,-2.153403987,-3.248449967
0.9352501330828882,-2.180057451,-3.115397008
0.7562312608172364,-2.238322051,-2.994630331
0.5589484116741437,-2.331969413,-2.891008693
0.31362878694865176,-2.390775527,-2.704464083
0.2856331985727535,-2.299063556,-2.584743041
0.42640454951465545,-2.128586697,-2.555080768
0.5222889065019387,-2.055740359,-2.578131565
0.6271646369465571,-2.022630085,-2.649891406
0.7591610050808911,-1.979562317,-2.738825079
0.9285300222793113,-1.942884911,-2.871511486
1.1176762385491785,-1.979784283,-3.097546214
1.2639318721292492,-2.017526502,-3.281584036
1.3809502241272062,-2.052205081,-3.433262462
1.4954177390741772,-2.172377211,-3.667863152
1.5340812085769837,-2.323252518,-3.857410875
1.5446529717482156,-2.421698523,-3.966442244
1.6026574995413854,-2.481754934,-4.08448934
1.7129718769044122,-2.494596087,-4.207655893
1.7169965738349557,-2.515296268,-4.232354799
1.662554536933131,-2.54602321,-4.208623018
1.6629472886471452,-2.548599747,-4.21164153
1.6637324793074253,-2.564422388,-4.228253584
1.6650278810220203,-2.577890311,-4.242965094
1.6530602234469212,-2.574131702,-4.227261196
1.6376663362090729,-2.55667275,-4.194432015
1.5910988788111604,-2.553116292,-4.144276062
1.5567779365545427,-2.564238138,-4.121079389
1.5462973790276597,-2.510360856,-4.056730573
1.5289100249824759,-2.443661182,-3.972644809
1.518805755018758,-2.413356956,-3.932257965
1.4383290540465443,-2.412228517,-3.85066813
1.3843380195927282,-2.406775455,-3.791202614
1.401899396375103,-2.393175366,-3.795137054
1.3899044823079405,-2.420811607,-3.810783184
1.3428354276170575,-2.471863613,-3.81475763
1.325241331559702,-2.4964463,-3.821734626
1.336970992689416,-2.445800814,-3.782850379
1.369760829415141,-2.366810679,-3.736654356
1.374177225183143,-2.36679282,-3.741081892
1.3834053229890628,-2.36596253,-3.749467301
1.4108032085914686,-2.378963538,-3.789821619
1.3792611436002495,-2.430352058,-3.809675289
1.3196151319410028,-2.435250556,-3.754924945
1.2890335139392677,-2.475675901,-3.76478446
1.281364114124734,-2.458718316,-3.740166196
1.3234655544798575,-2.379657476,-3.703155372
1.3508188425311258,-2.380485235,-3.731368271
1.3410713142770256,-2.392337916,-3.733515599
1.3350544676116138,-2.373532546,-3.708656835
1.3051773825076343,-2.38737846,-3.692613777
1.3175564040818217,-2.401822033,-3.719477157
1.327350113999973,-2.452509934,-3.779986526
1.2889584363765954,-2.473647674,-3.762717613
1.3221406038265946,-2.428651764,-3.7508538
1.3706566099735493,-2.391080419,-3.761778207
1.352380007897857,-2.362479689,-3.714922306
1.316720041,-2.382180619,-3.698990049
1.3282644093160751,-2.404222301,-3.732584453
1.3245847947486293,-2.396413679,-3.721066248
1.2743415341937128,-2.44411086,-3.718522239
1.2779937501243743,-2.468676754,-3.746759349
1.3094412067484544,-2.428656703,-3.738194151
1.310058106725039,-2.378890225,-3.689024053
1.3061055517940523,-2.362767487,-3.668957113
1.2809182217549806,-2.376886787,-3.657888155
1.2838632098437792,-2.353100819,-3.637045782
1.306943492,-2.352233397,-3.659262247
1.299076757215055,-2.415647162,-3.714787561
1.2948226806314116,-2.442073366,-3.73697335
1.2985064993586666,-2.394546405,-3.693137269
1.3133384464691502,-2.359270572,-3.672687183
1.315879006347359,-2.364732005,-3.680669831
1.2951051494389592,-2.351479783,-3.646650472
1.2804142103474774,-2.343850922,-3.624326438
1.3074922339833348,-2.344109209,-3.65166798
1.2991947473300156,-2.360798301,-3.66007772
1.280321270614624,-2.391243031,-3.671634351
1.2774991989964335,-2.405713201,-3.683329393
1.300430083422242,-2.383708133,-3.684234932
1.2956399409564225,-2.348644341,-3.644371542
1.2729650312586096,-2.309804003,-3.582892807
1.2783693310956166,-2.308228909,-3.586691656
1.2618817028312923,-2.356917837,-3.618877065
1.253165586556422,-2.355054277,-3.608319354
1.2250281954943958,-2.349512592,-3.57461735
1.2142194122820487,-2.340564646,-3.554833625
1.2464108503417999,-2.306520757,-3.552982962
1.2464547031094932,-2.302206129,-3.548716297
1.2516485490734968,-2.319891947,-3.571624918
1.292986025551461,-2.283619602,-3.57670895
1.2883136280015868,-2.278102833,-3.566504678
1.2839728238655121,-2.322415878,-3.606462216
1.2994327794887202,-2.323259402,-3.622742794
1.2579902345008758,-2.342076679,-3.600149992
1.2458579692298821,-2.330696577,-3.576687077
1.266740187816057,-2.26969926,-3.536522749
1.291823006,-2.232763333,-3.524625472
1.3147826665085893,-2.236777988,-3.551632197
1.3032409528069793,-2.265138649,-3.568464657
1.2838467239877704,-2.275258448,-3.559164267
1.256209231934902,-2.291132634,-3.547408718
1.2309308449419922,-2.347868174,-3.5788811
1.2256810468454078,-2.331083146,-3.556852823
1.2318923354782558,-2.255509808,-3.487478673
1.256775229429942,-2.259034379,-3.515855532
1.301284452160675,-2.272608997,-3.573961588
1.2878250001925884,-2.254197721,-3.542096843
1.2217279679559403,-2.238473492,-3.460252877
1.2054943092245554,-2.197896169,-3.403472582
1.1876579345116152,-2.247504501,-3.43526392
1.1617482043862823,-2.313019793,-3.474869781
1.2013122948156723,-2.253465813,-3.454847699
1.2645256855961027,-2.167843232,-3.432409307
1.2914096677732692,-2.130287828,-3.421773726
1.2525008700556692,-2.14504319,-3.397639616
1.2288867198259505,-2.162215338,-3.391192833
1.2302785273047077,-2.165131877,-3.395489611
1.2213439445325271,-2.197981968,-3.419396955
1.2179960660989928,-2.240873826,-3.458960463
1.1915409815677722,-2.221154386,-3.412787826
1.1824103473641754,-2.158679723,-3.341171701
1.2074329668776513,-2.110581832,-3.318131942
1.213382558709448,-2.096161024,-3.309643031
1.1855228120150303,-2.052404544,-3.237982055
1.1810290471968723,-2.067429543,-3.248535182
1.1837736718611107,-2.163659479,-3.347504922
1.185393930507144,-2.196306184,-3.38176289
1.1905388410461635,-2.158571909,-3.349172964
1.174762689717126,-2.115325346,-3.290160132
1.1916072077316378,-2.088550521,-3.280244616
1.233356058552233,-2.062862677,-3.296252452
1.2435457926729057,-2.021293652,-3.26486545
1.2450868795668455,-2.020115963,-3.265294455
1.2523127878947202,-2.041274791,-3.293679546
1.1710920906582012,-2.082193592,-3.25334677
1.114153214486211,-2.101188837,-3.215380495
1.1470785931624912,-2.086767287,-3.233905442
1.167697838039221,-2.060885423,-3.228675181
1.1885640493991816,-2.045466439,-3.234107475
1.2036805349930881,-2.028430965,-3.232213434
1.2019231459362618,-2.024627714,-3.226660979
1.1711338505921114,-2.048751988,-3.219941913
1.1618919407689774,-2.073998849,-3.235957843
1.1441084166815363,-2.109740362,-3.253946713
1.1196721653320039,-2.102765246,-3.222518034
1.1258708331859602,-2.058539162,-3.184457787
1.1372067394087813,-2.069205557,-3.206462765
1.1933715242032303,-2.102891343,-3.296355324
1.2053800026892605,-2.116004885,-3.321474907
1.1870814684716258,-2.14583453,-3.332986284
1.2143638141078836,-2.175738449,-3.390192955
1.2225876767089774,-2.206775038,-3.429451044
1.1795488104154013,-2.233264445,-3.412884095
1.1698944145344792,-2.234054601,-3.404039397
1.1964517813919855,-2.214564587,-3.411095645
1.1725369669905026,-2.224542124,-3.397151607
1.1598424691987899,-2.262490543,-3.422392331
1.1777416840263029,-2.269030502,-3.446833394
1.1984867532098178,-2.27622697,-3.474770173
1.190862508598735,-2.349866263,-3.540770385
1.1750758384453617,-2.380357631,-3.555487688
1.2102784122687535,-2.354831009,-3.565159464
1.2331163078138725,-2.346310521,-3.57949033
1.236251702742947,-2.336597954,-3.572951886
1.2470344485322458,-2.378098496,-3.625209387
1.2779175849708793,-2.411023938,-3.688984036
1.3135616615558836,-2.392959647,-3.706583466
1.350059994924827,-2.374893964,-3.725069279
1.3161442756270734,-2.419294905,-3.735544982
1.226745540328399,-2.449246733,-3.676055889
1.257245595426807,-2.401260202,-3.658571017
1.2895831553882562,-2.393342957,-3.682995971
1.2909212727920014,-2.396502918,-3.687505291
1.3091408490266636,-2.373398659,-3.682631996
1.305421835896106,-2.399650794,-3.705117618
1.306383826507854,-2.447190907,-3.753610918
1.2857433105354514,-2.458263544,-3.744073844
1.2734230880052528,-2.445210347,-3.718726083
1.2920067145342222,-2.428486801,-3.720577791
1.3183467023543192,-2.427154906,-3.74559818
1.328839424483573,-2.407497047,-3.736410131
1.3183777774802905,-2.39519768,-3.713619697
1.3258023853045457,-2.420135437,-3.745992032
1.3382073956108762,-2.447260887,-3.785539709
1.3309908684242966,-2.479504087,-3.810584551
1.2984193948495006,-2.480333547,-3.778822801
1.2856988993982428,-2.460990754,-3.746761729
1.3440895776259099,-2.436306856,-3.780449802
1.3750798233097954,-2.425293322,-3.800436496
1.3497409419144704,-2.448839585,-3.798664418
1.3643933921344702,-2.442042386,-3.80653642
1.3583922791361092,-2.417428401,-3.775928244
1.3075812700474663,-2.454209187,-3.761901586
1.2793238140259708,-2.471645671,-3.751077023
1.287730821553951,-2.4094636,-3.697274438
1.3133423248333673,-2.372178573,-3.685593904
1.3473237950593948,-2.422587004,-3.769971206
1.3914551365387369,-2.426032416,-3.81755606
1.3844134822431178,-2.413631648,-3.798107735
1.338181654006132,-2.44361554,-3.781859
1.325572187358133,-2.436484009,-3.762121062
1.3148400389680603,-2.48229195,-3.797198291
1.289559307936693,-2.482781776,-3.772433897
1.3310268661828677,-2.424541948,-3.755652182
1.3725182229577109,-2.40638249,-3.77896521
1.3646644369703842,-2.390585026,-3.755328144
1.3415375342740643,-2.375502442,-3.717144364
1.3267647293275058,-2.432462182,-3.759317451
1.300716783,-2.468128609,-3.768940902
1.2834562865338943,-2.471652549,-3.755198072
1.304408011291314,-2.463539756,-3.767991784
1.334449934122272,-2.423254972,-3.757778914
1.3456580490593726,-2.415427307,-3.761197795
1.3434109965128866,-2.431191013,-3.77468752
1.3767341292899693,-2.412038166,-3.788860551
1.379485327840012,-2.404199195,-3.783775778
1.3404328030434602,-2.427865041,-3.76836687
1.338742675538968,-2.485918168,-3.824742523
1.3276683021932507,-2.513712748,-3.841438199
1.3218825922545205,-2.456652824,-3.778571982
1.3362325634415495,-2.398076493,-3.734399402
1.355828959491109,-2.387257054,-3.743184459
1.3773368778552224,-2.383384756,-3.760793147
1.3736783670288757,-2.395901145,-3.76968193
1.351896630870771,-2.422650843,-3.774632817
1.3055674467519478,-2.460174053,-3.76579305
1.2880377757724064,-2.468987107,-3.757122534
1.306554618044233,-2.450634298,-3.757296088
1.3192456027912045,-2.436243094,-3.755589188
1.3617554928511073,-2.406432411,-3.768312174
1.3500730104317473,-2.407524039,-3.757704819
1.314168007065862,-2.420698759,-3.734959916
1.3444392908875966,-2.41721641,-3.761737519
1.3325513353155876,-2.422119922,-3.75474685
1.3228272754556227,-2.457763593,-3.780667231
1.356235265732594,-2.477481379,-3.833821984
1.389602394533353,-2.431864063,-3.821554559
1.3768935671787172,-2.410280637,-3.787249203
1.2930669094743366,-2.438536767,-3.731713218
1.266038568786581,-2.438948444,-3.70507607
1.3136793933867452,-2.422371411,-3.736119553
1.3205011201864347,-2.440929092,-3.761512148
1.3317442664766574,-2.476463042,-3.808287416
1.3422606708113067,-2.498738087,-3.841104548
1.3342514922504496,-2.460699275,-3.795038925
1.3256244170211962,-2.420433165,-3.746127341
1.3137595203114207,-2.409705766,-3.723531036
1.2963461362453272,-2.397503101,-3.693915097
1.3136473209225659,-2.361134816,-3.6748684
1.3451964041089624,-2.407853111,-3.753134069
1.3240043553868253,-2.495100919,-3.819157656
1.3067744295539707,-2.516808324,-3.823653704
1.312854633342853,-2.524438831,-3.837381405
1.330736751127926,-2.480816236,-3.811633753
1.3255882680710471,-2.444164316,-3.769845252
1.304433561378715,-2.477371643,-3.781919618
1.3189362535770424,-2.419549061,-3.738551299
1.3755287611843976,-2.390291431,-3.765891308
1.4094763355686861,-2.424118069,-3.833685322
1.348012528307441,-2.460904975,-3.808993243
1.3066987371340153,-2.490503388,-3.797310491
1.3139366143460305,-2.464392927,-3.778411018
1.3298507251625185,-2.440402642,-3.770321107
1.3291459648452748,-2.442073869,-3.771308077
1.327186683130692,-2.43841032,-3.765679782
1.3399106669859433,-2.425299513,-3.765249396
1.330393675706323,-2.449015036,-3.779457383
1.333139273704058,-2.509990325,-3.84321061
1.3110253428027734,-2.544050884,-3.855165579
1.300340596,-2.458949588,-3.759364036
1.335173006326572,-2.417675356,-3.752921629
1.3335315335498972,-2.446400017,-3.780019911
1.307881136568866,-2.436041499,-3.743996543
1.328603731354231,-2.417834983,-3.746506847
1.341834021301855,-2.456967909,-3.798872604
1.3199214135400643,-2.496920274,-3.816913308
1.2798478105953524,-2.516233974,-3.796141399
1.2891988440467195,-2.495771055,-3.785019627
1.3332409996219285,-2.453650547,-3.786983001
1.3280435247182911,-2.429785621,-3.757939004
1.3238454281251477,-2.442784271,-3.766751085
1.3244962724103073,-2.466174094,-3.790771195
1.345279418515215,-2.469392734,-3.814713624
1.3623334744521562,-2.488790113,-3.851189492
1.3427393432939074,-2.53560127,-3.878409462
1.2813270211231835,-2.538515698,-3.819902892
1.3171948611760451,-2.494895391,-3.812182523
1.3820018112076529,-2.442735409,-3.824823731
1.360796568,-2.392545619,-3.753391193
1.3488427892301835,-2.370556461,-3.719457767
1.340153578485519,-2.447646312,-3.787911285
1.323247875888265,-2.499881986,-3.823199198
1.2981297368014058,-2.513677693,-3.811845462
1.2936454227495262,-2.544015768,-3.837754626
1.3116705776175945,-2.516363423,-3.828124375
1.337462756647249,-2.485382998,-3.822932712
1.356978838189037,-2.464882149,-3.821951176
1.3217250653540833,-2.448818413,-3.770593221
1.3213187933202624,-2.443428053,-3.764827799
1.3463341301741512,-2.452334164,-3.798763331
1.3184056882206947,-2.49158681,-3.810064205
1.2859375339955974,-2.540083221,-3.826068749
1.2868959351105869,-2.533549816,-3.820494151
1.290809631548693,-2.495690832,-3.786597399
1.2811998358821952,-2.497570326,-3.778851036
1.2793319502467493,-2.507413431,-3.786803742
1.279633687944533,-2.528440472,-3.808141062
1.2830980186253924,-2.534154618,-3.817316385
1.2665845625878438,-2.530108692,-3.796766589
1.262763400805744,-2.552911373,-3.81576092
1.2750682276522172,-2.578997993,-3.854139656
1.2884832397339463,-2.562804343,-3.851362143
1.242244761583423,-2.550762439,-3.793084396
1.2171976607271153,-2.555828885,-3.773125369
1.2472733097551774,-2.508410056,-3.755788544
1.2846295512430652,-2.469537648,-3.754259626
1.2679041431738107,-2.495421314,-3.763419887
1.2287429802973924,-2.550313179,-3.779156129
1.1582104142481713,-2.611297265,-3.769558184
1.1033455783439314,-2.577814496,-3.681229449
1.1452470025598336,-2.515772196,-3.661109151
1.1546884043229158,-2.516463687,-3.671242225
1.1260084054769928,-2.530521072,-3.656631444
1.1135403014022487,-2.53307946,-3.64670254
1.1250295906906025,-2.520055975,-3.64515838
1.1612624474483817,-2.551353138,-3.712678803
1.1911318277254528,-2.595795563,-3.787015235
1.204737576423853,-2.566903986,-3.771735017
1.2561384915096576,-2.530473536,-3.786688605
1.3149855889520943,-2.477442063,-3.792494392
1.2879609291813665,-2.452221113,-3.740221889
1.2295916421033766,-2.478663018,-3.708317615
1.1901518149455441,-2.503040922,-3.693277313
1.208561152029159,-2.517017388,-3.725678584
1.2102570438858384,-2.558733069,-3.769062398
1.1744403019442742,-2.572212446,-3.746715329
1.198569633782723,-2.523488653,-3.722116814
1.249796767105811,-2.494068187,-3.743914905
1.2786100803691964,-2.498948061,-3.777652177
1.2931240119554674,-2.496562035,-3.789795267
1.3034110425737049,-2.447698577,-3.751204576
1.3125762339018192,-2.444427812,-3.757060864
1.2965377998475405,-2.527210156,-3.823796527
1.2803440793615266,-2.572070617,-3.852464196
1.2915348045133075,-2.531318564,-3.822893134
1.3230003111625936,-2.470657297,-3.793709574
1.3506073082301266,-2.457055062,-3.807762636
1.3548805771880765,-2.477666107,-3.832645494
1.300947077199578,-2.494750119,-3.795786124
1.294548509061979,-2.479232207,-3.773873521
1.356228478504516,-2.45836611,-3.81466707
1.3467266737249204,-2.503370196,-3.850183351
1.2923435988183376,-2.521665198,-3.814104898
1.3012978818486185,-2.480970437,-3.782326877
1.3466518461724157,-2.48601618,-3.832742717
1.3607508750596657,-2.461833461,-3.82269954
1.3605478079776976,-2.415788132,-3.776398171
1.3334885741120734,-2.427592093,-3.761135274
1.324870260562087,-2.492414718,-3.817403896
1.323047051283257,-2.560043781,-3.883156198
1.3224808504866536,-2.550462569,-3.87299552
1.346713102436848,-2.488047754,-3.834824588
1.3464686509842088,-2.440859249,-3.787407901
1.312052393,-2.435535988,-3.747701971
1.3272030939966486,-2.459796432,-3.7871088
1.3541487592391381,-2.478447787,-3.832689514
1.3462105295780018,-2.470965786,-3.817252782
1.3329815992804963,-2.510760319,-3.843814361
1.3167152036549912,-2.575801272,-3.892583022
1.3336565888808705,-2.54027626,-3.873980482
1.3450176368294877,-2.45941053,-3.804457419
1.3598001134788227,-2.421021886,-3.78087522
1.390313031581416,-2.449557934,-3.839927344
1.385545085385616,-2.508759222,-3.894371832
1.3798716937982318,-2.519608643,-3.899568387
1.3781583130328663,-2.564322643,-3.942534593
1.4048473695322727,-2.575974565,-3.980895217
1.407257110664745,-2.510140213,-3.917507366
1.3715232906390407,-2.486415735,-3.858015602
1.3409396261648028,-2.452949996,-3.793958264
1.298276711802448,-2.413298612,-3.711643391
1.3103721906485173,-2.34525443,-3.655686249
1.3333719420243746,-2.245720854,-3.579138171
1.3109927690107182,-2.211663695,-3.522727783
1.2522522862545757,-2.262670277,-3.514996523
1.1140672915852607,-2.287400617,-3.401543978
0.9320027301826465,-2.266525989,-3.198612665
0.771719252,-2.303613131,-3.075373478
0.6044687400458753,-2.37357072,-2.97807934
0.38260588774977466,-2.480899912,-2.863606117
0.2550256446854948,-2.512553798,-2.767711598
0.3069177655538822,-2.373686593,-2.680677426
0.3693507357201695,-2.274004422,-2.643421258
0.476238601,-2.249565747,-2.725894267
0.6430200103151261,-2.160427424,-2.803491167
0.8265775235291327,-2.072988528,-2.89965176
1.0427774943207049,-2.007046671,-3.049932239
1.2188554069061588,-2.029940946,-3.248869977
1.3484554602675445,-2.065785193,-3.414338482
1.4571438119551068,-2.124703052,-3.581930943
1.4837825814721697,-2.280442215,-3.76430253
1.5265185375465091,-2.410019377,-3.936593541
1.6036281849991187,-2.474542677,-4.078240837
1.673696157106468,-2.450665324,-4.124482969
1.7297911992364252,-2.417301898,-4.147175941
1.730231685504436,-2.472425446,-4.202748319
1.7037705424209977,-2.521136881,-4.225033592
1.660353398649373,-2.547893833,-4.208347691
1.6239820720267086,-2.592786736,-4.216830818
1.6142414818814705,-2.636326205,-4.250637384
1.610117288516588,-2.648412467,-4.258628686
1.6351196274432998,-2.567195255,-4.202415842
1.6616645179917553,-2.499248217,-4.16097098
1.6435239409136393,-2.497972646,-4.141512892
1.5305436716238996,-2.455356037,-3.985958724
1.4525499575614882,-2.437104925,-3.889738138
1.4851938939149045,-2.435686053,-3.92093851
1.4275613142593846,-2.436683828,-3.864309364
1.2939328058092696,-2.458029205,-3.75203668
1.260111912754768,-2.453267511,-3.713478597
1.2940961719242172,-2.428389473,-3.722566754
1.312935325523033,-2.443893872,-3.756900459
1.3092444859953243,-2.463905192,-3.77324326
1.3287814185903997,-2.477771495,-3.806622108
1.3487917225253718,-2.484914551,-3.833803453
1.3375766091607468,-2.462967946,-3.800631815
1.3006577632102159,-2.483466951,-3.784185315
1.305805248661886,-2.445556885,-3.751452226
1.3353015282736935,-2.407369077,-3.742734655
1.3473147111714991,-2.418665515,-3.766028062
1.3586590145290807,-2.413038634,-3.771821351
1.3529478009858098,-2.409732199,-3.762771734
1.3434663364299277,-2.401727574,-3.745271869
1.3436048434950916,-2.431786634,-3.775457194
1.3210648104235971,-2.470123643,-3.791252791
1.297760207862562,-2.500484231,-3.798347681
1.3032191406444555,-2.462707229,-3.765984784
1.2879832277508934,-2.401565851,-3.689563462
1.2898961667353834,-2.402843659,-3.692820378
1.3102279473434941,-2.410843835,-3.721166766
1.294618831694952,-2.403121311,-3.697812684
1.3193965125245921,-2.410485252,-3.729927137
1.315134731934015,-2.457754565,-3.772956186
1.2661094612191723,-2.503055786,-3.769256364
1.2876247033062265,-2.459420174,-3.747109867
1.3105747896614444,-2.412675519,-3.723325007
1.3319759268074263,-2.414456053,-3.746489474
1.346322066423183,-2.377597219,-3.723993517
1.3195948839651517,-2.367181816,-3.686902492
1.314009081670069,-2.427621578,-3.741733817
1.2597530842472204,-2.462158016,-3.721955848
1.2103043537807001,-2.507562992,-3.717909797
1.2155909602939394,-2.505798685,-3.721454535
1.2553527172838974,-2.444430242,-3.699867473
1.2503209063494192,-2.41025955,-3.660641211
1.2282545418886448,-2.392222574,-3.620538843
1.2495655967082653,-2.387001808,-3.636632111
1.2630069089564049,-2.399980849,-3.663021001
1.243593214063882,-2.448364031,-3.692031415
1.2466825312426004,-2.503241071,-3.750002057
1.2568311949891187,-2.499155999,-3.756075388
1.2780953444036385,-2.431368323,-3.709566406
1.2834776953259155,-2.360360691,-3.643893377
1.3000901957555229,-2.372065883,-3.67225678
1.3126579516892434,-2.386523594,-3.69931959
1.2833200123265764,-2.370617455,-3.654014122
1.2377824388895402,-2.376612164,-3.614420066
1.2230823950994811,-2.40815337,-3.631274337
1.2462897635006864,-2.479299251,-3.725669612
1.218561637432158,-2.443700019,-3.662337483
1.1844593009283637,-2.364293031,-3.548829898
1.2317141676503305,-2.352839511,-3.584687287
1.2604122163623657,-2.371134864,-3.631640051
1.2454194446185054,-2.387472266,-3.632970462
1.2114094871672467,-2.389572806,-3.60106324
1.1733778950469993,-2.395579672,-3.569028397
1.2043707980623177,-2.41833458,-3.622812309
1.224147984096096,-2.403962294,-3.628217013
1.2140172979745198,-2.359314451,-3.57341908
1.2213979330952462,-2.359433621,-3.580881042
1.2249171501694154,-2.372722768,-3.597705265
1.2251320407887838,-2.341626066,-3.566859932
1.2039813030778195,-2.344099287,-3.548175595
1.1728978506205023,-2.375422339,-3.548370384
1.1613787120609158,-2.399448067,-3.560878046
1.1640242607581752,-2.414089748,-3.578199595
1.1781482519490563,-2.365482587,-3.543719949
1.204476444443586,-2.307194466,-3.511709225
1.231112096,-2.293943206,-3.525097546
1.221204446671563,-2.28754757,-3.508827616
1.1931211686925784,-2.294135938,-3.487346899
1.190951191271604,-2.306666763,-3.49769808
1.192378538349914,-2.317615038,-3.510079122
1.1832511904012644,-2.342215896,-3.525566962
1.1710782108018185,-2.312774841,-3.483923915
1.1719021245314702,-2.26649379,-3.438465221
1.1692735695687642,-2.275036702,-3.444398337
1.1742531296316205,-2.280486421,-3.45481209
1.166970408647992,-2.261332477,-3.428358949
1.1472133527247075,-2.273840122,-3.421130896
1.1406806361439052,-2.294648257,-3.43542243
1.1359712198251206,-2.299439776,-3.435513509
1.171955634692312,-2.260318949,-3.432379406
1.1752260077491061,-2.214385272,-3.389688414
1.1619427020814677,-2.201854777,-3.363841625
1.1614594627856507,-2.200144461,-3.361691897
1.1392086789970393,-2.200239518,-3.339569674
1.1464978501285288,-2.217613333,-3.364207717
1.1010191708514272,-2.240410626,-3.341500541
1.043906632708275,-2.247797988,-3.291776905
1.0907307026217927,-2.233160879,-3.323977544
1.1550861665218477,-2.185730148,-3.340931273
1.2071742443158993,-2.165769284,-3.373039722
1.1902262194500628,-2.162815594,-3.353087213
1.1163960020579378,-2.155136223,-3.271586503
1.1201501983733022,-2.154466533,-3.274682477
1.1267538496887488,-2.154348767,-3.28115083
1.0744631214357638,-2.177760751,-3.25225555
1.065714225731701,-2.20525321,-3.27100669
1.1082357038540476,-2.148640356,-3.256953239
1.1146958113548258,-2.111741873,-3.226562425
1.070339320082229,-2.10759722,-3.178057599
1.0828592952846567,-2.096563308,-3.179496156
1.1117832386044693,-2.10346067,-3.215327223
1.1011728479819554,-2.087314056,-3.188610202
1.088078673589218,-2.089740149,-3.177933097
1.0843974555550238,-2.162733097,-3.247189174
1.0945509069411161,-2.177820064,-3.27244141
1.1323779425514453,-2.131771167,-3.264206443
1.1450605552849569,-2.12269325,-3.267810867
1.1225572026554278,-2.10975781,-3.232411881
1.1354680909622905,-2.125580344,-3.261107603
1.142102102700064,-2.161682908,-3.303833101
1.1557378444265234,-2.191793356,-3.347610835
1.0883427569480337,-2.254679728,-3.343098587
1.0416175128389231,-2.282169414,-3.323857947
1.089926758186349,-2.25943468,-3.349465976
1.0990662724966027,-2.236234761,-3.335359458
1.105209888859971,-2.228576333,-3.333846703
1.1061650523247215,-2.265859811,-3.372099011
1.108651782845884,-2.307543282,-3.41626859
1.1433254505656447,-2.345796497,-3.489234913
1.1358950144622402,-2.38951217,-3.525531824
1.1121678591942268,-2.426597877,-3.538858529
1.1190921963690004,-2.392365876,-3.511524604
1.151453092410055,-2.34549733,-3.497042223
1.1896968156615588,-2.35808729,-3.547853508
1.194491003,-2.387446638,-3.58199376
1.1952592447341395,-2.382292217,-3.577637177
1.1896746558588174,-2.400395721,-3.590164102
1.1824472744209034,-2.463253322,-3.645783702
1.1832952730258444,-2.510719952,-3.694091137
1.2037123082907994,-2.492277923,-3.696082019
1.2145520455641738,-2.460057664,-3.674703444
1.2169510606761176,-2.439027779,-3.656041027
1.253144591,-2.430401703,-3.683614951
1.2464189709750189,-2.420944245,-3.667437347
1.217328892449719,-2.465344435,-3.682744787
1.2402664843870164,-2.539269526,-3.779588174
1.263115042174005,-2.58069882,-3.843845412
1.2675536170454265,-2.575947058,-3.843564414
1.2733536922785402,-2.52144505,-3.79491218
1.2906443027298595,-2.479506474,-3.770263412
1.2978590426978258,-2.4725831,-3.770514417
1.3040110730291063,-2.464447217,-3.768523621
1.2940930148741883,-2.469434977,-3.763608261
1.2637248675275867,-2.482294984,-3.746082443
1.2612786414582207,-2.507630035,-3.768974648
1.2554265243722722,-2.553695864,-3.809235788
1.2529277626074729,-2.508226188,-3.761240759
1.262353424569323,-2.437491944,-3.699889001
1.2867293245948985,-2.434443715,-3.721237703
1.3171595967578706,-2.45767071,-3.77491676
1.3021948656232216,-2.496888681,-3.799150588
1.2869516362542819,-2.504354273,-3.791352525
1.3061945151782197,-2.508568636,-3.81484968
1.2800845989785412,-2.579998237,-3.86017141
1.243499649957708,-2.571249729,-3.814820714
1.2427890951167244,-2.506955069,-3.749819697
1.293267522347309,-2.489725212,-3.783056404
1.3430520834487816,-2.467448161,-3.810545485
1.3408168441197463,-2.468070675,-3.808933541
1.336448522329801,-2.456298424,-3.792816944
1.3203153461399324,-2.45699178,-3.777379788
1.258161595474103,-2.52341646,-3.781661451
1.250906802168505,-2.529727126,-3.780739523
1.2751722178204719,-2.49618643,-3.771445295
1.287011443460365,-2.445051298,-3.732077097
1.311826445120182,-2.456364619,-3.768212698
1.3258975745146142,-2.528495639,-3.854489513
1.335638519580328,-2.507888813,-3.843590259
1.3036458781579805,-2.478571538,-3.782274797
1.2608827264113078,-2.512622232,-3.773589586
1.263373999,-2.552906264,-3.8163669
1.2826696353640772,-2.533053213,-3.81580817
1.3232878272470412,-2.450217724,-3.773556286
1.3191993151782813,-2.415569721,-3.734822176
1.2771069588919555,-2.44038951,-3.717562407
1.294221066091197,-2.458609465,-3.752893823
1.342065843033785,-2.468386743,-3.810530207
1.3492266871778764,-2.503186832,-3.852478697
1.2914291738797412,-2.54638932,-3.837884156
1.2653028495571619,-2.508215468,-3.773637541
1.2726265611669318,-2.455704912,-3.728475875
1.2873712350587334,-2.443875689,-3.731340821
1.3329655360754573,-2.446836313,-3.779851467
1.306950006066811,-2.458735028,-3.765738575
1.2314553079074648,-2.478400918,-3.709912562
1.2229367491550833,-2.490758331,-3.71376717
1.2508331148348635,-2.500188734,-3.751107505
1.2867131841755628,-2.507918767,-3.794692129
1.3008165488266008,-2.512938582,-3.813804706
1.281292365775686,-2.497718065,-3.779074429
1.2836959384716702,-2.503759906,-3.787549593
1.2989835936761598,-2.494042813,-3.793071572
1.2886821995026934,-2.471320071,-3.760082268
1.2884153196710515,-2.497929231,-3.786484511
1.2952996770512255,-2.500219316,-3.795600661
1.2553628726592454,-2.524932264,-3.780341038
1.258890590543989,-2.5326117,-3.791586559
1.297699183,-2.486966154,-3.784740652
1.2901075652917118,-2.454190979,-3.744379483
1.3139021245759195,-2.455858896,-3.769861871
1.3123117520386134,-2.471885686,-3.784252597
1.2617784034303583,-2.496944801,-3.758794241
1.2676050839861919,-2.511343168,-3.77902963
1.2810604100097596,-2.519021713,-3.800144377
1.290892107751392,-2.494222248,-3.785212403
1.278610939138042,-2.509861674,-3.788564032
1.2771016223839522,-2.525499581,-3.802679922
1.3016147594368863,-2.486183713,-3.787875503
1.3154624745332848,-2.493537395,-3.809071151
1.3172933950774606,-2.503776051,-3.821127806
1.2815784336644627,-2.506383599,-3.788007638
1.2462735472618909,-2.561516149,-3.807857426
1.2446302266219156,-2.563341912,-3.808034867
1.2981887667987524,-2.516814443,-3.81504561
1.3106788535593281,-2.51687463,-3.827613798
1.2912408049600024,-2.498173099,-3.789517055
1.3042933378631703,-2.462548679,-3.766936076
1.2872322243330938,-2.485977788,-3.773278238
1.276908892,-2.511608864,-3.788593653
1.265644931411166,-2.549778918,-3.815488482
1.2470936462771989,-2.581863921,-3.829027143
1.222357530475907,-2.545520986,-3.767974948
1.2626373519647953,-2.504478322,-3.767204183
1.3325767255572096,-2.514445087,-3.847113533
1.319433380617274,-2.518650508,-3.838126853
1.2710544480037782,-2.506984725,-3.778092286
1.229552093808075,-2.514035424,-3.743674342
1.2402763683981755,-2.522370164,-3.762711704
1.2711955308864438,-2.531751145,-3.803025736
1.2409585764609732,-2.533663903,-3.774706765
1.2564809334221654,-2.50860047,-3.765148623
1.293036500763386,-2.49447911,-3.787583682
1.259577865,-2.506158427,-3.765815541
1.2586082970586638,-2.497639814,-3.756303775
1.3196574255203182,-2.468267004,-3.787970755
1.3258791293477796,-2.474030555,-3.799990229
1.2583638971771034,-2.560294498,-3.81875415
1.2760937663333158,-2.599933401,-3.876113077
1.3000491668399468,-2.533181535,-3.833321498
1.2802297463587404,-2.49550061,-3.77581784
1.2928676326452315,-2.510820759,-3.803752986
1.2845876516238859,-2.503871635,-3.788533345
1.294754125068534,-2.478534142,-3.773382985
1.3372335226599465,-2.49303094,-3.830359782
1.343707229985744,-2.557178578,-3.900948945
1.2935494778497678,-2.617933821,-3.911574129
1.2291446691872507,-2.580819065,-3.810111727
1.2280274408978311,-2.512293744,-3.740420641
1.2655296287498072,-2.490072133,-3.755674643
1.3158045328859342,-2.489856415,-3.805740474
1.3445168247730876,-2.498611734,-3.843189962
1.3049714688975853,-2.50928374,-3.81432722
1.247142126,-2.520948455,-3.768174113
1.2441348131343095,-2.550048632,-3.79426781
1.281517718867735,-2.544905965,-3.826508235
1.2949132572721733,-2.507316411,-3.802291732
1.2538429698819877,-2.501861529,-3.755763757
1.2540384127260569,-2.526008162,-3.780142248
1.2739539996298994,-2.510330049,-3.784356163
1.2767319832878787,-2.508696692,-3.785504192
1.3023350244101723,-2.532131961,-3.83454229
1.2786038147776075,-2.544141979,-3.822790223
1.243543827218526,-2.538893317,-3.782499166
1.2472182671831304,-2.51102577,-3.758332278
1.2442351845729425,-2.525780663,-3.770085878
1.2729664676047032,-2.54367924,-3.81672591
1.3078725199300492,-2.520416496,-3.828353356
1.3161036613333519,-2.532273264,-3.848442211
1.2749884949432655,-2.553659048,-3.828747915
1.220301172427306,-2.569881732,-3.790254846
1.211331496,-2.5911836,-3.802562137
1.2290729477222364,-2.549283495,-3.778420929
1.2442854212709802,-2.496901984,-3.741266606
1.3087463016424425,-2.515897337,-3.824722156
1.323358360850136,-2.523083072,-3.84652041
1.239336065523629,-2.504077943,-3.743494092
1.2226657326856862,-2.52005959,-3.742795291
1.2380140483757371,-2.530052438,-3.768144878
1.2203382264804754,-2.568842571,-3.78927673
1.2202668114364774,-2.598908775,-3.819248388
1.2702241551913394,-2.553167861,-3.823458001
1.2713203343942294,-2.513882091,-3.785285602
1.253275334154805,-2.484171759,-3.737529006
1.2814689525614797,-2.506994849,-3.788557503
1.2874404108150124,-2.558895727,-3.846422388
1.284707199828086,-2.562884386,-3.847691197
1.283589889295692,-2.58330095,-3.867002806
1.2464085572669004,-2.572919415,-3.819383905
1.2448262592193995,-2.507229001,-3.752094296
1.2546303130455945,-2.49570834,-3.750417138
1.2576680118803347,-2.524991433,-3.782713003
1.2677436292021338,-2.54684704,-3.814618486
1.2303394882323464,-2.550695438,-3.781088677
1.2058467395796517,-2.541205414,-3.74713018
1.1940728766240436,-2.569358188,-3.763504649
1.1735651460619136,-2.559234643,-3.732877954
1.202081446726382,-2.552151868,-3.7543277
1.203067346557842,-2.55671657,-3.759873894
1.180379976,-2.562870687,-3.743345631
1.208709318435426,-2.613313954,-3.822106368
1.2029788102985515,-2.596285089,-3.799337059
1.1684210194209628,-2.578109917,-3.746623589
1.1868867259939235,-2.621611832,-3.808597794
1.1997648863908277,-2.657852284,-3.857702877
1.1701721327150625,-2.628997689,-3.799242207
1.1742497650490775,-2.587630845,-3.761930265
1.1917800225330215,-2.571516944,-3.763389119
1.1839555519042744,-2.583620755,-3.767676949
1.1805718513602816,-2.587224799,-3.767839276
1.148365258851998,-2.572926943,-3.721352876
1.1328857976766291,-2.583672674,-3.71663273
1.097246807464368,-2.629233789,-3.726558676
1.0591498388515557,-2.632966478,-3.692190986
1.0643385573717814,-2.581982391,-3.646369123
1.0790521862615425,-2.57447505,-3.653607033
1.1060420217689493,-2.602636933,-3.708770458
1.119976055959204,-2.593105274,-3.713173404
1.1334144745020176,-2.584713512,-3.718206929
1.1585204992472204,-2.608592942,-3.767193118
1.185489225740057,-2.608544224,-3.794086149
1.183292783671925,-2.612298569,-3.795637839
1.1522199255837582,-2.590144708,-3.742423159
1.1669987161015154,-2.537268971,-3.704332706
1.208301026110403,-2.517830134,-3.726207851
1.1928250554691417,-2.511037207,-3.703931615
1.1502825403741113,-2.534269789,-3.684641284
1.1700015137671405,-2.55413918,-3.724213582
1.1834641305232774,-2.588331021,-3.77188884
1.1518834812732874,-2.614068671,-3.766057455
1.167631688953096,-2.578652628,-3.746345299
1.2099705661908522,-2.53828077,-3.748316693
1.2144345933613854,-2.519891609,-3.734430609
1.241074310516347,-2.508428062,-3.74960685
1.2712843830964349,-2.495993117,-3.767366661
1.2749514789875123,-2.493251956,-3.768283846
1.2686948125795223,-2.514775564,-3.783523262
1.2068418264048588,-2.563274312,-3.770192916
1.1715728245671861,-2.599461724,-3.771137891
1.2323243166612758,-2.583293741,-3.815730872
1.2901001146594473,-2.528929255,-3.819121488
1.2828449768008268,-2.499990775,-3.782902487
1.251170170200496,-2.509826168,-3.761061684
1.258016192198724,-2.546494487,-3.804562264
1.2845413146977547,-2.545211094,-3.829813693
1.2705518090585421,-2.554561273,-3.82517807
1.2410234057343603,-2.592433281,-3.833542271
1.2666807491473606,-2.567171983,-3.833977412
1.308837787711122,-2.548388384,-3.857304516
1.295692637938728,-2.548201727,-3.843973029
1.2705140260201684,-2.520706054,-3.791318032
1.273931483262704,-2.49887975,-3.772895419
1.2653072096087803,-2.499669625,-3.76507892
1.2417682907322793,-2.519767856,-3.761612618
1.2380077372684741,-2.563237539,-3.801323495
1.264227928538293,-2.560917809,-3.825262654
1.2662766293524694,-2.534406963,-3.800763449
1.2983967550687354,-2.487735355,-3.78618558
1.3460616177558224,-2.453826912,-3.799984851
1.3620648263801707,-2.485191435,-3.847327137
1.3526187221153496,-2.53962503,-3.892333425
1.316172505175973,-2.542156124,-3.858447336
1.2810332392793635,-2.588014421,-3.869146849
1.2547206538731683,-2.599570703,-3.854378486
1.248156129827196,-2.537148576,-3.785405486
1.2726546772022826,-2.526419878,-3.799175882
1.3111432468667266,-2.542848371,-3.854059237
1.2979196990274944,-2.55006835,-3.848045597
1.259646548,-2.571629928,-3.831340163
1.2072999841249756,-2.620853338,-3.828243257
1.191934190397936,-2.658660208,-3.850680332
1.1822007412888966,-2.659062131,-3.841329621
1.1878179721620539,-2.60502022,-3.792906105
1.230652052027453,-2.499930016,-3.73066344
1.254440902894889,-2.409469458,-3.664001757
1.2622186402818099,-2.361180049,-3.62346213
1.2458973815555883,-2.31485984,-3.560843587
1.1826800876456338,-2.294472387,-3.477260182
1.0672519593689116,-2.313775407,-3.38108211
0.8530961365806503,-2.411257855,-3.264350506
0.6522946139719963,-2.490621899,-3.142972614
0.4689575513603695,-2.491192992,-2.960247104
0.2802156757334841,-2.526977978,-2.807236186
0.1448726825677682,-2.54886553,-2.693801215
0.13018942447898516,-2.454474621,-2.584740184
0.20844772529110253,-2.341949407,-2.550473985
0.3414154695933863,-2.265616481,-2.607135193
0.501388454,-2.250607099,-2.752122633
0.7065189722397052,-2.204379319,-2.91099791
0.9779984936900874,-2.041334209,-3.019407782
1.1914550647188213,-1.936499906,-3.128017493
1.3332195993411182,-1.96640345,-3.299684882
1.4152853822191689,-2.069506676,-3.484916161
1.4808041042112403,-2.209715249,-3.69062253
1.5656963521322445,-2.335623433,-3.901414558
1.6166209787575343,-2.430501322,-4.04721294
1.650234136,-2.50377927,-4.154095178
1.6950425692254862,-2.527553176,-4.22268011
1.689476499,-2.529808685,-4.219340335
1.6752690331848745,-2.574427106,-4.249750585
1.6944023906962418,-2.614553924,-4.309028739
1.6403120001373102,-2.618142028,-4.258522246
1.5479917662845437,-2.628151324,-4.176221085
1.5007187684029675,-2.65153088,-4.152330064
1.4564571877396728,-2.657135508,-4.113692298
1.4347044286048098,-2.596084918,-4.030871356
1.425311998783133,-2.517996809,-3.94337153
1.3922581439057178,-2.502774774,-3.895140862
1.362498929981922,-2.505300684,-3.867898494
1.3525598676209232,-2.472829041,-3.825458346
1.3401588101200268,-2.463220435,-3.803437925
1.2917578614156489,-2.466279167,-3.758122898
1.2738788353687645,-2.495979633,-3.769930174
1.299008878336857,-2.516102152,-3.815180683
1.3173319911394406,-2.496676489,-3.814106601
1.2956963061107325,-2.467512471,-3.76327098
1.284811837628213,-2.465149952,-3.750017034
1.299920420892571,-2.454271988,-3.754292093
1.2753093825093735,-2.428184971,-3.703552933
1.2483956319666814,-2.474649296,-3.723109954
1.269299787630262,-2.547641232,-3.817027369
1.2787125000761435,-2.557321992,-3.836097081
1.282654331895346,-2.516534783,-3.799259782
1.2726019790128733,-2.484241963,-3.756919182
1.2666206035118603,-2.44701393,-3.713708423
1.2836203022496884,-2.442903631,-3.726619785
1.268712815,-2.486530634,-3.755350051
1.2855674837732658,-2.485010623,-3.770681069
1.2835161209608723,-2.470687902,-3.754269331
1.2217871320701048,-2.486148628,-3.70802931
1.2063475610728267,-2.507272024,-3.713739556
1.2386943868326676,-2.515479207,-3.754243849
1.2348311990915353,-2.479959394,-3.714891312
1.2182177275074748,-2.468240498,-3.686550913
1.223631842681782,-2.460729009,-3.684414553
1.2592357352083032,-2.44533304,-3.704638877
1.259859427724879,-2.471096481,-3.731045532
1.2061522894599774,-2.525488915,-3.731707654
1.2103274267156796,-2.542294715,-3.752717508
1.235202762065937,-2.462033255,-3.697369402
1.2176768303241052,-2.401176843,-3.618947783
1.193001995043948,-2.444487516,-3.637558543
1.2091266503438873,-2.438180014,-3.647367116
1.2276087976001406,-2.43287607,-3.660530497
1.2221912090968812,-2.470040589,-3.692325253
1.236226328664027,-2.49415835,-3.73046296
1.254557570042611,-2.498779888,-3.753380653
1.2488146301513967,-2.46544085,-3.714359841
1.244748342303347,-2.442150655,-3.687008396
1.2541098019145782,-2.449648509,-3.703821075
1.2702251101602573,-2.434103723,-3.704412006
1.2339266171776944,-2.414160942,-3.648173235
1.1975087362724872,-2.421606579,-3.619173615
1.189068531353085,-2.453349152,-3.642488134
1.2054411164353327,-2.478876147,-3.684409044
1.2129939446282276,-2.470143174,-3.683245566
1.1769692007325099,-2.45542724,-3.632513013
1.1797102513573923,-2.441135753,-3.620949876
1.2211653158725264,-2.423515478,-3.644731312
1.2276440342259596,-2.393767583,-3.621487932
1.2027193980360094,-2.393199935,-3.596009544
1.169489296780654,-2.418015642,-3.587571975
1.160613815329405,-2.45156931,-3.612251922
1.199458088,-2.46624802,-3.665782025
1.2343106840581213,-2.429911012,-3.66428719
1.1944662195032074,-2.395657983,-3.590231948
1.180848645641103,-2.411982493,-3.592957712
1.192672819249259,-2.411576783,-3.604329607
1.1935859736850838,-2.421836996,-3.615510274
1.1808190738659108,-2.434252616,-3.615161167
1.147100300979724,-2.429111281,-3.576275644
1.1686288004193233,-2.417089262,-3.585789966
1.181606284014037,-2.382090861,-3.563776004
1.1566936856692924,-2.386737482,-3.543514653
1.153364233106734,-2.377118164,-3.530534581
1.162700200922997,-2.360453603,-3.523186047
1.1646982782801372,-2.360412929,-3.5251745
1.1627639795490692,-2.366320092,-3.529152175
1.1596370875532347,-2.388368124,-3.54808106
1.1431569600874316,-2.424517611,-3.567747374
1.1474218780049779,-2.396303826,-3.543780131
1.202226509986652,-2.341301022,-3.543607804
1.2186579911586537,-2.305191965,-3.523980944
1.1855496008461386,-2.317421454,-3.503064648
1.17911354,-2.326919597,-3.506106967
1.1405632394462681,-2.320214532,-3.46087727
1.1002072885894776,-2.334084327,-3.434371848
1.0992830722847768,-2.348368748,-3.447713648
1.1068074038460185,-2.331094202,-3.437979751
1.1262956782262876,-2.288053473,-3.414414378
1.1350169422544019,-2.272868835,-3.407968443
1.1255666793847985,-2.264082158,-3.389723954
1.1025884250009799,-2.261682671,-3.364313446
1.116715188731064,-2.276021824,-3.392789562
1.1322039339846357,-2.267196314,-3.399469662
1.0977057660322869,-2.289732655,-3.387496946
1.0650403073804124,-2.311915282,-3.377066512
1.080850819171887,-2.275694558,-3.356645814
1.0834735574899508,-2.249974762,-3.333530312
1.1217526547375964,-2.241316859,-3.363161827
1.176474902356462,-2.214751967,-3.391293479
1.153342013,-2.203778714,-3.357160499
1.1064584092941787,-2.191269871,-3.297788312
1.073785415,-2.165344991,-3.239220158
1.0594009075018185,-2.180060185,-3.239558945
1.0581546447674648,-2.175108789,-3.233365778
1.0530806816902594,-2.161792431,-3.214952893
1.0698658773822085,-2.185561667,-3.255501229
1.079294593035647,-2.176613208,-3.255976947
1.0854373133033277,-2.158623968,-3.244116872
1.0554833616189851,-2.179323649,-3.234865937
1.0303153161427492,-2.19453305,-3.224899065
1.0315740747157949,-2.215435717,-3.247053765
1.0280090236434094,-2.211806402,-3.23987217
1.051612934947894,-2.164962357,-3.216659986
1.0777457257579284,-2.123354353,-3.201185368
1.074107735620856,-2.095564529,-3.169735067
1.078376889112754,-2.104231383,-3.182682156
1.1104683749697661,-2.13197078,-3.242534668
1.0713101792519446,-2.145091888,-3.216490413
0.9981195527413952,-2.179084002,-3.177289448
1.0259010876618806,-2.201363211,-3.227325083
1.0833414294281003,-2.168546198,-3.251964942
1.0861779436188916,-2.160818717,-3.24708651
1.0631284982139702,-2.162383988,-3.225562056
1.070611680160791,-2.158088418,-3.22876715
1.0884870543457266,-2.168104893,-3.256659744
1.1162922324680864,-2.197008867,-3.313365469
1.100991588929801,-2.251240476,-3.352327522
1.0345350828026445,-2.299694624,-3.334263504
0.9937301092902038,-2.294020445,-3.287795694
0.9960055274612035,-2.279524391,-3.275624262
1.038677615923445,-2.30418604,-3.34291174
1.0652020417522852,-2.320864157,-3.386103023
1.0612838671412186,-2.305606977,-3.366962053
1.0903035193840172,-2.308964349,-3.399339395
1.1036853028088314,-2.36039291,-3.464130271
1.0788020652844335,-2.433730186,-3.512598252
1.1008580055598556,-2.436480326,-3.537427828
1.1533887418131468,-2.397671119,-3.551129826
1.164439806062317,-2.387818963,-3.552340414
1.1502039572913518,-2.408426981,-3.558750207
1.159923702304126,-2.437666525,-3.59768783
1.204787296,-2.440910119,-3.645766376
1.2415987928114254,-2.429717381,-3.671380977
1.1601387418607534,-2.458937033,-3.619119788
1.1089934769079723,-2.512336881,-3.621385453
1.1536380551376593,-2.485325947,-3.639006993
1.1709971108696726,-2.45877694,-3.629825334
1.174135626,-2.471015221,-3.645234271
1.1772543334454943,-2.463016928,-3.640328663
1.1861502495593308,-2.468941923,-3.655141112
1.2084851303001038,-2.494135491,-3.702688427
1.203918548989209,-2.530407099,-3.734380642
1.178764378142648,-2.565837929,-3.744652201
1.209251172614184,-2.559919178,-3.769242045
1.2666075864126267,-2.53370579,-3.800395152
1.3207046764606303,-2.490829611,-3.811587444
1.2628731636791857,-2.47778416,-3.740712696
1.2014711297899536,-2.501762038,-3.703326988
1.2333786451426594,-2.507301814,-3.740750468
1.2340271495558905,-2.532765859,-3.766872414
1.1986900083497016,-2.565934993,-3.764721714
1.204995011765902,-2.55573902,-3.760800727
1.2032288912461415,-2.52395261,-3.727259044
1.2170090961448412,-2.493417773,-3.710493701
1.2432595255477397,-2.484861386,-3.728181785
1.2764932728665033,-2.483962301,-3.76052032
1.310861626633058,-2.491771007,-3.802751556
1.3023838628410074,-2.502247509,-3.804740788
1.2490667420262116,-2.51684108,-3.765974136
1.224235554915098,-2.543561191,-3.767868495
1.2229108410476277,-2.536591712,-3.759577531
1.2387105144555146,-2.51325897,-3.752065258
1.2705984409500355,-2.495869914,-3.766521407
1.2729372068301978,-2.479445628,-3.752414907
1.2670831042576949,-2.470968558,-3.738133967
1.2536377872965716,-2.475157425,-3.72885606
1.2394529111279173,-2.515896772,-3.755415645
1.2304436450136933,-2.552987984,-3.783518365
1.2292656167561355,-2.539811561,-3.769125543
1.2529497069339657,-2.50121687,-3.754257275
1.2853381967658437,-2.46826387,-3.753724247
1.2484295387960946,-2.475382083,-3.723891867
1.2196818312166744,-2.495708226,-3.715480714
1.275476373514261,-2.506098206,-3.781659256
1.2790831309567456,-2.535717459,-3.814894048
1.225757501997655,-2.567356602,-3.793237072
1.230971075182396,-2.546991893,-3.778064267
1.2718315021826982,-2.481385696,-3.753293566
1.2618131373008405,-2.463184081,-3.725098512
1.2082060945907922,-2.452587381,-3.660877331
1.208492339730884,-2.432797783,-3.641368831
1.2369452811341841,-2.487017237,-3.724053779
1.2338780698005591,-2.532707793,-3.766627617
1.2368763416188984,-2.540392898,-3.777332443
1.2247676494272242,-2.574238246,-3.79908876
1.2359635044263124,-2.556260828,-3.792260919
1.272548912749836,-2.512061508,-3.784701518
1.284892146523302,-2.508747847,-3.79375692
1.3110012638363218,-2.480926911,-3.792004388
1.308593901939259,-2.447790529,-3.756451058
1.2906255668092521,-2.47095032,-3.761658674
1.2814321901292878,-2.524958284,-3.80647823
1.2180653810226936,-2.572664024,-3.790792312
1.171888929505806,-2.549148815,-3.721118571
1.2235404729103088,-2.497618314,-3.721247234
1.250266872090206,-2.480974803,-3.731317447
1.2242605850926285,-2.467527236,-3.691862573
1.2455697440842908,-2.467565815,-3.713238588
1.2660381774129517,-2.490844828,-3.756999601
1.242195927772447,-2.528700651,-3.771004002
1.237667290266854,-2.57206575,-3.809820834
1.2708730619779516,-2.559303104,-3.830248398
1.2936359136518618,-2.503869601,-3.797589883
1.267481809728164,-2.484823018,-3.752388882
1.2388053202479699,-2.478278417,-3.717165248
1.2687129641297357,-2.467947093,-3.736753693
1.2417794746909665,-2.470431441,-3.712280959
1.179315786220861,-2.502972071,-3.682375739
1.1900323509293498,-2.549109874,-3.739211303
1.201273293854276,-2.558098075,-3.759402631
1.1940719581720192,-2.541137264,-3.735288532
1.2258635855449187,-2.511470596,-3.737427901
1.242890281,-2.49159505,-3.734541965
1.2077953589893624,-2.501969807,-3.70981488
1.2273803915375436,-2.492518918,-3.71995513
1.248763151,-2.498761673,-3.747593341
1.1905722455857142,-2.562084991,-3.752747213
1.1562913929380663,-2.586964844,-3.74334525
1.2001859302085867,-2.548969148,-3.74923493
1.2344348683014847,-2.502360634,-3.736874582
1.2533074866356138,-2.492473599,-3.745867818
1.2732571500895997,-2.496678105,-3.770009917
1.2686233406781866,-2.495048914,-3.76372057
1.2782225920469978,-2.500177212,-3.778453266
1.2619580925280924,-2.55829852,-3.82031613
1.1973647706715258,-2.63049405,-3.827931862
1.1636308018600454,-2.597766469,-3.761482559
1.181613366618194,-2.536571656,-3.718265347
1.2239073830568479,-2.505629758,-3.729637297
1.2561468612078435,-2.515042929,-3.771298187
1.2547614081180631,-2.524612177,-3.779447257
1.260596728303344,-2.513885321,-3.774579141
1.2557878689298876,-2.529818596,-3.785690198
1.2392529320889902,-2.554654235,-3.793971318
1.213237588792278,-2.567457599,-3.780755058
1.1825268037465657,-2.543459765,-3.726023749
1.187192414112452,-2.505593702,-3.69285102
1.1879945593615884,-2.50455229,-3.692647027
1.200404945563912,-2.509161525,-3.709647933
1.2130090812185765,-2.509831491,-3.722907525
1.228092852599688,-2.521319779,-3.749474699
1.2415561004709037,-2.557633754,-3.79927595
1.231200649493686,-2.588253034,-3.819544891
1.2149702662401165,-2.565768745,-3.780824012
1.2244931959012935,-2.543690477,-3.768273953
1.246630519111394,-2.532970314,-3.779675364
1.2874802022492366,-2.516374779,-3.803925791
1.324002226751692,-2.519900694,-3.843951473
1.2932676064720856,-2.528917982,-3.822255802
1.214560194144133,-2.554533145,-3.769200119
1.180087237747373,-2.594298755,-3.774445837
1.212835348007246,-2.575745931,-3.788630918
1.237772712,-2.54343327,-3.781288887
1.2441824961003665,-2.535452323,-3.779695002
1.2344180583492137,-2.532111514,-3.766602808
1.2243265873525349,-2.516108379,-3.740513108
1.2350538042583554,-2.515217546,-3.750366063
1.2260688042261223,-2.535477931,-3.761638446
1.2080090522459204,-2.576355583,-3.78441186
1.2112890769105735,-2.59061493,-3.801993186
1.2158039344712785,-2.569135712,-3.785068347
1.2229703458650074,-2.542726824,-3.765787477
1.2625831806661583,-2.533828593,-3.796471963
1.2722393402953485,-2.560266863,-3.832580645
1.2643652304508313,-2.544059316,-3.808519383
1.2638293245706167,-2.529857788,-3.793751744
1.2411902831106305,-2.554365543,-3.795623352
1.219380011862141,-2.576590747,-3.796044779
1.2337268296484947,-2.560122463,-3.793918805
1.285338343464274,-2.535445182,-3.82084704
1.312431473,-2.525780547,-3.838279215
1.2716254046815796,-2.529815843,-3.801526526
1.2143846010980635,-2.540358996,-3.754782698
1.2100586907381665,-2.552340174,-3.762473882
1.2287226466693755,-2.583370715,-3.812207101
1.202430804073109,-2.647066928,-3.849554082
1.1510787048663385,-2.612289798,-3.763412497
1.1800223472110023,-2.542395915,-3.722521184
1.2305909647090754,-2.523673878,-3.754336954
1.2437774666131378,-2.52390745,-3.767704771
1.262782878465683,-2.560721463,-3.823571761
1.2716875899347684,-2.547875997,-3.81966842
1.271806039448888,-2.534084686,-3.805960423
1.2463746183255497,-2.572565901,-3.818989403
1.2233329918359823,-2.578426072,-3.801821719
1.223741672,-2.57337702,-3.797181307
1.2145916328026978,-2.569311855,-3.783965011
1.236004044416032,-2.548979129,-3.785055239
1.2476571807519754,-2.53215242,-3.77989088
1.245580117155079,-2.531779101,-3.777481554
1.2142326479598602,-2.558794846,-3.773126454
1.2034620998545595,-2.600724438,-3.804262431
1.235228978,-2.629604619,-3.864914499
1.2228637719020747,-2.615745318,-3.838689995
1.2096185778099537,-2.580250959,-3.789967707
1.2261239300283824,-2.529451331,-3.755681936
1.2300986991916216,-2.506362082,-3.736518138
1.2447028738961683,-2.542530023,-3.787308584
1.2631261419841668,-2.528331537,-3.791577926
1.2641422859693034,-2.552010098,-3.816239958
1.2388783441861984,-2.621153872,-3.860094187
1.2514415708900226,-2.606771874,-3.858307835
1.2874063583825255,-2.570546444,-3.858031826
1.2982398344102386,-2.543560023,-3.841816226
1.3155634224489392,-2.539081182,-3.854690939
1.2596017758452085,-2.536238917,-3.795942501
1.201047416121436,-2.535808321,-3.736987062
1.2231212510497316,-2.566267295,-3.789518344
1.2274724323276278,-2.614794733,-3.842359593
1.2270679950781989,-2.618060483,-3.845190893
1.2321011175617278,-2.590459033,-3.822612761
1.204348813512511,-2.56176725,-3.766203708
1.2173962910456082,-2.537338608,-3.75482201
1.2280649517522273,-2.511819157,-3.739948038
1.222817076,-2.523015482,-3.745875074
1.2393090364761288,-2.56735743,-3.806721522
1.237972683544392,-2.57928268,-3.817319813
1.225338164043278,-2.591379266,-3.816797155
1.2146665908548036,-2.57979814,-3.794561726
1.207170126134545,-2.578764443,-3.786017966
1.2131689501871639,-2.594434282,-3.807688927
1.2261089938695582,-2.572078098,-3.798277189
1.1974944057505872,-2.573996827,-3.771548263
1.1930379720778466,-2.596901589,-3.789978196
1.1905952164123352,-2.614471068,-3.805182225
1.1295626489952595,-2.683088278,-3.812732605
1.1393127645677925,-2.697625488,-3.836989666
1.1406448890806953,-2.629194401,-3.76990698
1.0844355429530528,-2.611197955,-3.695656553
1.1246847995772333,-2.632809287,-3.757552195
1.2045622479055835,-2.640135481,-3.844755348
1.174810679387357,-2.622176379,-3.797041019
1.0925066325486004,-2.605187344,-3.697799763
1.0964975437067725,-2.637123966,-3.73370552
1.1008233415235713,-2.666053223,-3.766939237
1.1121143162884635,-2.63047747,-3.742685904
1.1256745713099132,-2.586213985,-3.711970378
1.1265717831412927,-2.584597382,-3.711268804
1.1526335329785087,-2.578700957,-3.731414464
1.1522974273946984,-2.586052228,-3.7384029
1.138824101261229,-2.626954692,-3.765831767
1.0941154700058944,-2.656221656,-3.750393011
1.048644168326335,-2.703140518,-3.751823646
1.0557850675630223,-2.673848358,-3.729684737
1.0179344811068962,-2.629562904,-3.647587164
1.0505766513447619,-2.615250968,-3.665945744
1.1257846328146774,-2.577199474,-3.703104932
1.1295912726851938,-2.564836015,-3.694550185
1.1412588762207572,-2.588692924,-3.730060636
1.151220598335555,-2.618025066,-3.769315319
1.1375878825307708,-2.636672529,-3.774340001
1.130468333773252,-2.61402305,-3.744571729
1.1173908284989378,-2.590253386,-3.707756164
1.1146603691034795,-2.582156529,-3.696960946
1.1305644996996733,-2.547211917,-3.677851651
1.1496313112694274,-2.514147191,-3.663857878
1.183512933803989,-2.533292976,-3.71689863
1.220162248473496,-2.598268182,-3.818501134
1.211064873680396,-2.619733758,-3.830875342
1.1719856089522451,-2.59504614,-3.767093353
1.1592157765051017,-2.570691809,-3.729980137
1.1943255977909382,-2.549931651,-3.744348562
1.2183015274106284,-2.540696957,-3.759085442
1.2368962824480636,-2.543579585,-3.780561321
1.2473986790946052,-2.547142663,-3.794591114
1.2505945380702295,-2.572780388,-3.823444771
1.2312187543633595,-2.630507066,-3.861801896
1.182239996022445,-2.654263924,-3.836567579
1.2145781752376494,-2.580974249,-3.795618345
1.2342365423247386,-2.533158017,-3.767461963
1.252394532286886,-2.520702336,-3.773154689
1.2926795561292665,-2.518980204,-3.811736348
1.2530625729379519,-2.545889694,-3.799035967
1.2594167561188774,-2.530691115,-3.790186799
1.297017837835007,-2.536852317,-3.83393262
1.2739688695658116,-2.586716278,-3.860737597
1.2620114926199097,-2.587886673,-3.850006236
1.2617521029307457,-2.575016415,-3.836875378
1.2511778597317866,-2.550340841,-3.801575672
1.2841449400400073,-2.523101032,-3.807294417
1.2462932897446846,-2.538721943,-3.785115605
1.221069069141618,-2.565314785,-3.786466277
1.2557152245106753,-2.567964719,-3.823715019
1.2636435617401245,-2.591222896,-3.854932472
1.2501325813056856,-2.599750082,-3.849951088
1.2262959125949005,-2.55465891,-3.781046776
1.2536917736064264,-2.511013103,-3.76480134
1.287902713651161,-2.522169925,-3.810152947
1.287549555133898,-2.532411047,-3.820003226
1.2796145102911403,-2.538925823,-3.818581659
1.232960075076967,-2.558738801,-3.791799677
1.2120561106765373,-2.5979124,-3.810035896
1.2121360697506078,-2.645977292,-3.85813788
1.2179158086790878,-2.627330075,-3.845299053
1.247533141676467,-2.58505776,-3.83265131
1.250595031687254,-2.596083238,-3.846759941
1.222289608690053,-2.606539698,-3.828953962
1.205842631,-2.595043889,-3.800949467
1.1815024432303045,-2.61984557,-3.801395866
1.1587724666640247,-2.656713422,-3.815552669
1.1417469084944736,-2.672609885,-3.814393175
1.139054539,-2.624176155,-3.763286424
1.155199981603916,-2.49235455,-3.64765903
1.1762280104859943,-2.362817181,-3.539137754
1.1955698690063996,-2.277112293,-3.472720371
1.1848161948676694,-2.235599784,-3.420479381
1.0901307894003909,-2.291504669,-3.381749008
0.8699042229246323,-2.39035209,-3.260356867
0.6057857404495967,-2.475106223,-3.080956069
0.42562973389768904,-2.522389492,-2.948106108
0.2533699932751651,-2.573853266,-2.827334496
0.077652658,-2.595281773,-2.672998909
0.059749204,-2.501833645,-2.561636
0.17541694144692624,-2.327224735,-2.502691532
0.3372980784907181,-2.184693647,-2.522027015
0.4944779653339472,-2.153288602,-2.647803403
0.6713801074947091,-2.107095091,-2.778541378
0.9122890314534685,-2.007084272,-2.919474155
1.1484882380375685,-1.94705426,-3.095607181
1.2558610356742168,-1.958486577,-3.214374712
1.3031470554659506,-2.046161816,-3.34934587
1.3962591206399455,-2.191283899,-3.587624316
1.506720894275114,-2.311265335,-3.818040056
1.6084076899835056,-2.375032316,-3.983494365
1.668280918136386,-2.438573345,-4.106933136
1.6746478864602297,-2.519598071,-4.19431771
1.6794899472566835,-2.550697483,-4.230237589
1.6531872461433443,-2.542610811,-4.195866684
1.6201461632777139,-2.570959517,-4.191174551
1.6091743136241206,-2.597323942,-4.20657511
1.563433348952423,-2.59386293,-4.157373412
1.5215248043617218,-2.59216882,-4.113763196
1.4737291354631281,-2.603030803,-4.076837119
1.4395186349867164,-2.61698024,-4.056531937
1.4181344683576227,-2.569526353,-3.987684255
1.4153067175929195,-2.4767749,-3.892132331
1.4166330572122454,-2.46576362,-3.882502305
1.366478679596609,-2.478792759,-3.845360082
1.3105817837672644,-2.460919366,-3.771559463
1.2853302647219096,-2.450596698,-3.735976636
1.2923044670233113,-2.440338168,-3.732705528
1.2608480433021148,-2.48424861,-3.745186625
1.2113391159979747,-2.534262516,-3.745680258
1.2242631679657017,-2.504967303,-3.729301952
1.2474337729364906,-2.46027172,-3.707807439
1.2834761737041462,-2.461242875,-3.744819037
1.2827194426002873,-2.481266397,-3.764115906
1.230898525792995,-2.474047955,-3.705054376
1.2233484738955724,-2.461678172,-3.685080761
1.2274494043612312,-2.488901613,-3.716420058
1.2334572062667026,-2.525197482,-3.758738949
1.2442295648304695,-2.513104072,-3.757408679
1.2402655751252751,-2.518479362,-3.758829674
1.280339098511307,-2.488328141,-3.768778082
1.322834739453002,-2.438612576,-3.761525156
1.3232030955814518,-2.438387674,-3.761677984
1.271187447807804,-2.463218263,-3.734496649
1.2012366224830344,-2.442971661,-3.644290498
1.2207277302689667,-2.46988241,-3.690714325
1.2595838171945735,-2.517048806,-3.77672469
1.2436340997392417,-2.480863887,-3.72455477
1.2506262924217455,-2.444541193,-3.695205634
1.2641478208977144,-2.459152032,-3.723363721
1.2694390717853707,-2.466184336,-3.735696629
1.2724376139396048,-2.437064944,-3.709575524
1.230001659185287,-2.457290919,-3.687355107
1.185335438936153,-2.525688094,-3.711066902
1.1783560752871027,-2.547426546,-3.725820553
1.2080947101166553,-2.490928557,-3.699102917
1.2505190731839693,-2.424843327,-3.675435584
1.2788396705584633,-2.38632289,-3.665211588
1.2591374663325618,-2.405942139,-3.665155248
1.226179198753689,-2.420460361,-3.646723593
1.211227914696495,-2.435486662,-3.646806196
1.215350571917263,-2.46162084,-3.677082063
1.1883756906452632,-2.483828111,-3.672285769
1.174682345991127,-2.499723677,-3.674474613
1.1960192003249595,-2.45655176,-3.652664454
1.2264598177150243,-2.410153954,-3.636669992
1.2369581384685155,-2.391814737,-3.628848059
1.1944501999916217,-2.401457959,-3.5960011
1.189096977683643,-2.419383938,-3.608559801
1.2109574513877375,-2.438526993,-3.64959571
1.1923475354544097,-2.463618461,-3.656055372
1.1976042555463153,-2.456111355,-3.653810023
1.214230645507443,-2.429259711,-3.64358787
1.2295860092117155,-2.399343771,-3.628998657
1.2332398599124286,-2.417086897,-3.650386385
1.2044472555167003,-2.440075548,-3.644598961
1.1932234347507584,-2.43206147,-3.625377153
1.1884044307831865,-2.434397318,-3.622897412
1.1825718772770637,-2.431938031,-3.614613053
1.1469981092763417,-2.438159853,-3.585252792
1.1489012656761668,-2.405270529,-3.554283805
1.196487815,-2.379985688,-3.576542307
1.2119971429625338,-2.380646742,-3.592700664
1.2052504797295387,-2.351461872,-3.556797142
1.1910343630312563,-2.357614562,-3.548730968
1.200949629330614,-2.37271245,-3.573746124
1.1817442952138768,-2.377520133,-3.559351436
1.1477813912002872,-2.427204958,-3.575096404
1.150627217,-2.439676305,-3.590387453
1.171860101718817,-2.374773802,-3.54671213
1.2037184164549255,-2.330745727,-3.534571802
1.213063703434244,-2.332826387,-3.545993211
1.2276157832838557,-2.31861043,-3.546310397
1.226616516321673,-2.335510574,-3.562202294
1.185695639195814,-2.337351554,-3.523139875
1.1524546454621434,-2.357626064,-3.510133649
1.1266936579609819,-2.366604546,-3.493338606
1.125066097425024,-2.32738632,-3.45251468
1.1503059659088963,-2.334450594,-3.484832383
1.1644330923200772,-2.310837664,-3.475364929
1.1756824429190733,-2.28262684,-3.458398631
1.193185257520623,-2.27819908,-3.471447297
1.1797250577754617,-2.243920944,-3.423701219
1.1533918683495472,-2.284115617,-3.437577712
1.135701438822825,-2.34627977,-3.482066059
1.104654619951213,-2.303012666,-3.407736341
1.1128063350487596,-2.258702275,-3.371556391
1.1735272802358105,-2.250840334,-3.424440855
1.2383980363167586,-2.253490415,-3.492005041
1.2085073993114634,-2.258448185,-3.4670385
1.1150648657311446,-2.244003978,-3.359089346
1.1055477478969093,-2.245114525,-3.350721683
1.102515421981128,-2.286120622,-3.388722529
1.0999556977202785,-2.267958408,-3.367965619
1.138735718916243,-2.208174848,-3.346952966
1.1789517689393951,-2.172026026,-3.351050728
1.1713628449349047,-2.156760759,-3.328194287
1.1384199118824796,-2.161917627,-3.300394216
1.1528559798864222,-2.182406331,-3.335332415
1.1354707602682057,-2.207386251,-3.342927346
1.101701695509238,-2.218148158,-3.319924535
1.0865623677100031,-2.210961722,-3.297605017
1.0982052458414868,-2.174895034,-3.273201067
1.1363812027165738,-2.125160467,-3.261635293
1.1511118086233645,-2.130384871,-3.281562387
1.14695915,-2.131527386,-3.278583738
1.1542117930670708,-2.11298912,-3.26729927
1.114006858118161,-2.113989263,-3.228078654
1.0732429252765006,-2.158065255,-3.231373224
1.0201403444713806,-2.206385268,-3.226592809
1.003211721496575,-2.163071859,-3.166376069
1.0550492534341482,-2.107953901,-3.163099334
1.0637977071975686,-2.096974905,-3.160832812
1.0493868978418397,-2.107586651,-3.157025651
1.0236627741195015,-2.119637089,-3.143370217
1.0381558635919754,-2.118945992,-3.157160298
1.0660994250701408,-2.108238618,-3.174377481
1.042749210986561,-2.140505972,-3.183331253
1.0358551533418274,-2.165491408,-3.201434914
1.0690042960148478,-2.153139443,-3.222208674
1.0934195775043152,-2.13810479,-3.231587476
1.1058626157977987,-2.114433482,-3.220356994
1.1385465161771826,-2.107159209,-3.245796014
1.1131412177273896,-2.164307993,-3.277574175
1.0708184611998897,-2.216470308,-3.287375579
1.0846727019690965,-2.243027337,-3.327768688
1.0750814428034026,-2.272436836,-3.347600547
1.080466516,-2.252961186,-3.333487528
1.121413664338189,-2.216380002,-3.337882708
1.1412566663833221,-2.224735199,-3.366076233
1.1109077486738803,-2.276092816,-3.38706136
1.0996735817851808,-2.321016066,-3.420788686
1.1300477698480083,-2.317157295,-3.447301586
1.1272705349706997,-2.349471444,-3.47684253
1.1010231360931995,-2.392149158,-3.493264599
1.144456901623328,-2.38815972,-3.532679092
1.1677577094879974,-2.394782992,-3.562619911
1.203683365,-2.384753465,-3.588529885
1.2523835848347253,-2.379990464,-3.632463751
1.2640946473941697,-2.390582499,-3.654764965
1.2260133324474436,-2.4006073,-3.626691079
1.1626799954784088,-2.441525213,-3.604285627
1.1723880040321317,-2.502184232,-3.674684724
1.1777575094659194,-2.49688318,-3.674737213
1.1661282114042866,-2.468320132,-3.634522658
1.1739270566544506,-2.452616636,-3.626606169
1.2163052069150446,-2.423065044,-3.639451563
1.2573518148898806,-2.420556506,-3.67800174
1.2588207944389243,-2.413136072,-3.672021404
1.2569019620698747,-2.439944432,-3.696949078
1.2503506498444756,-2.520116074,-3.770573538
1.2387148113918562,-2.531535842,-3.770311002
1.263126703074842,-2.489466844,-3.752657779
1.3023392746879687,-2.4629496,-3.765373739
1.2855901848504445,-2.448773734,-3.734427805
1.269102305579163,-2.452694203,-3.721857098
1.2512442873049483,-2.459176991,-3.710503965
1.2599872088021251,-2.483424876,-3.743500815
1.271848227048879,-2.52226767,-3.794181553
1.2415975490152518,-2.532692627,-3.774386941
1.2464572091906516,-2.479008976,-3.725569398
1.2929617763090444,-2.394387896,-3.687411438
1.2957094988630564,-2.397706091,-3.693479221
1.2726819288065598,-2.466691878,-3.739436818
1.2710138763802845,-2.469612338,-3.740662658
1.2865034558200221,-2.463456941,-3.750021271
1.2878156390123692,-2.483461292,-3.771363456
1.2778648034939524,-2.511168036,-3.789137737
1.2816910830192747,-2.479571683,-3.761350568
1.3032701699973224,-2.400748424,-3.704113978
1.3197149740864473,-2.425309007,-3.745131789
1.3337683051692055,-2.476132068,-3.809957487
1.3361714259596562,-2.432233652,-3.768471113
1.3201641043807342,-2.433058564,-3.753295372
1.2859118490774955,-2.465986128,-3.751968097
1.2455275428328019,-2.522273858,-3.767870797
1.258200896250646,-2.522823816,-3.781085479
1.311504669742868,-2.458249544,-3.769834205
1.3407357967405342,-2.441506981,-3.782316166
1.3314036629488974,-2.440753334,-3.772195793
1.3004452120327914,-2.430074023,-3.730563122
1.263691311278447,-2.44321556,-3.707017284
1.2636809534301252,-2.441135841,-3.704933415
1.2699723097153852,-2.455589246,-3.725645151
1.2689213193970252,-2.466443728,-3.735423299
1.2854947040531295,-2.420781357,-3.706343649
1.300322375984197,-2.404622056,-3.705010259
1.300391861466376,-2.435570754,-3.736009466
1.3203432824363952,-2.430663835,-3.75108722
1.332489411043603,-2.441187149,-3.773748363
1.2976456324042274,-2.462522527,-3.760213868
1.295109595318298,-2.489298979,-3.784485553
1.2861570127691153,-2.540019513,-3.82626766
1.2574677914149053,-2.533824235,-3.791373875
1.2667853571054235,-2.472616502,-3.739457407
1.276970854169042,-2.401972071,-3.679009904
1.2494324232720666,-2.384443341,-3.633916607
1.233878247390409,-2.411725898,-3.645659628
1.2487108771298654,-2.441649576,-3.690452175
1.286445967,-2.47449905,-3.761015657
1.299846643849329,-2.467454856,-3.767392769
1.3051122970169888,-2.45693399,-3.762124538
1.2968143514562527,-2.44367834,-3.740546613
1.2723029672005386,-2.441554513,-3.713973435
1.297595724040334,-2.450051945,-3.747728737
1.313934113,-2.446507553,-3.760492423
1.255947707810574,-2.44717517,-3.703239754
1.2190502962560377,-2.4631438,-3.682268498
1.2118839031234026,-2.49515415,-3.707091391
1.2337782965509316,-2.509567384,-3.743417139
1.2874249708248897,-2.503649506,-3.791169233
1.304421438846521,-2.488777966,-3.793297437
1.3102766799829555,-2.429702296,-3.740047372
1.3211521806729396,-2.412200336,-3.733451921
1.3061659339957676,-2.448961218,-3.755221809
1.275346888121489,-2.476700032,-3.752118049
1.2272480069317058,-2.500184187,-3.727518133
1.1876165250960993,-2.540815609,-3.728527745
1.230038167545067,-2.536123844,-3.76623029
1.3005337190988295,-2.480860583,-3.781455581
1.3063707255344923,-2.457938454,-3.764401835
1.2828877681682997,-2.434209178,-3.717180147
1.2839884605550411,-2.391461317,-3.675513323
1.2410915956881086,-2.431453183,-3.672609564
1.2227842580172916,-2.481979996,-3.704870747
1.2452984510811578,-2.503597263,-3.748979719
1.2729072349881505,-2.506276919,-3.779213064
1.3271181206595521,-2.477016634,-3.804199258
1.3228634318234413,-2.466712886,-3.789664671
1.267152956048924,-2.48905807,-3.756288652
1.2311299615726843,-2.467089862,-3.698288791
1.2536511325678286,-2.435976958,-3.68972772
1.2784452634175532,-2.459212396,-3.737744603
1.226584244504762,-2.549069313,-3.775731658
1.2362023682930139,-2.573662247,-3.809942402
1.2835742913371497,-2.501440272,-3.785055049
1.2558083775446347,-2.468088089,-3.723964382
1.2545121412935132,-2.472718348,-3.727335048
1.2735818894482653,-2.471204577,-3.744838573
1.2749011084110755,-2.46921879,-3.7441449
1.265920274126055,-2.473741787,-3.739759675
1.251092108656854,-2.502201124,-3.753413943
1.2334246019910386,-2.550371574,-3.783865409
1.2316849691751341,-2.573302018,-3.805065176
1.2519703182774644,-2.53521434,-3.787296173
1.282543063112704,-2.456498203,-3.739111731
1.304165775096273,-2.426493362,-3.730704445
1.3025623314590096,-2.467909049,-3.770537949
1.300247784415443,-2.49214151,-3.79249989
1.2898818631415292,-2.496224884,-3.786229408
1.2447460168347366,-2.544760488,-3.78958659
1.2237062990155825,-2.564231596,-3.78799962
1.2199719491235717,-2.52085989,-3.740896405
1.2430347494566736,-2.482417526,-3.725555705
1.2574514507865955,-2.447502187,-3.705041603
1.2689388711402558,-2.433582777,-3.702572615
1.2756378953657248,-2.458415243,-3.734155661
1.272415737,-2.495114087,-3.767657895
1.2661466849304925,-2.557990754,-3.824193007
1.2669245063581178,-2.559509205,-3.826500435
1.3111891548471268,-2.506038587,-3.817337396
1.3098108527983854,-2.491823622,-3.801704045
1.2743157596318704,-2.480085199,-3.75445473
1.2897666110436432,-2.478809062,-3.768658807
1.2896078347556195,-2.493539142,-3.783230095
1.2782849953126616,-2.520192726,-3.798543402
1.262926268645923,-2.55241262,-3.8153816
1.2265011821131135,-2.565672843,-3.792221684
1.1947205880881047,-2.52991049,-3.724719686
1.2377288486631524,-2.475761264,-3.713572286
1.295758569866994,-2.433166827,-3.728983519
1.2856412094509007,-2.433111662,-3.718830882
1.2757152294491736,-2.453764594,-3.729551004
1.2965096065177497,-2.500102022,-3.796671058
1.300606682924139,-2.550847654,-3.851512866
1.2903929880814633,-2.583816268,-3.874290151
1.291585875020483,-2.561379733,-3.853049258
1.3031949681718604,-2.488632188,-3.791899549
1.2999032237101822,-2.45833816,-3.758321746
1.2737931736693389,-2.469881923,-3.743744911
1.2499611410179787,-2.463675975,-3.71368416
1.2647629886918794,-2.465441283,-3.730273525
1.2937546517076515,-2.46378139,-3.757652612
1.2920366416549158,-2.468602968,-3.760785399
1.2984378788214694,-2.508777301,-3.807306517
1.2540328423303373,-2.528167133,-3.78225258
1.2283011360795317,-2.53835269,-3.766720087
1.2882604934356348,-2.51608549,-3.804424792
1.3365829993327274,-2.503663076,-3.840333235
1.3198509066535835,-2.511106927,-3.831032101
1.2615411814280084,-2.517887119,-3.77946513
1.2501282666139377,-2.559778909,-3.809970364
1.2481348369859109,-2.571305301,-3.819531944
1.2479550460613649,-2.538360914,-3.786396264
1.254396919542679,-2.517285624,-3.771763273
1.2761938056722757,-2.510509113,-3.786783245
1.2737329569105509,-2.522549376,-3.796388297
1.2465786953754066,-2.514297576,-3.760960791
1.249814444254669,-2.473913892,-3.72383072
1.2460002910119312,-2.50390041,-3.750008202
1.2538838738756821,-2.551621707,-3.8055436
1.2549542785026173,-2.542193782,-3.797199475
1.2578810750148437,-2.502110589,-3.760062004
1.292345461768029,-2.471982554,-3.7643888
1.3025121497921124,-2.454600291,-3.757188829
1.2942679006532258,-2.465527054,-3.759886446
1.2790038809675324,-2.499289756,-3.77840548
1.249720963,-2.515350488,-3.76516135
1.230199886557009,-2.543731683,-3.774020272
1.2138427834562855,-2.569003201,-3.782899068
1.243088687482421,-2.544380437,-3.787543982
1.264420627845351,-2.514639431,-3.779166067
1.2883574311275912,-2.482257376,-3.770710337
1.3269425181189818,-2.470671692,-3.797749861
1.323098040139825,-2.475211269,-3.798394547
1.299449960311371,-2.488400241,-3.78789053
1.2504454931976348,-2.514780041,-3.76531775
1.2471554961662994,-2.51856355,-3.765785434
1.2724963075186326,-2.53424685,-3.806805711
1.2787414890857551,-2.529788143,-3.808608747
1.3291432179169187,-2.498904741,-3.828118169
1.3098249141643041,-2.49780725,-3.807744871
1.2673333841056935,-2.492402648,-3.759860226
1.2841618993458348,-2.492865493,-3.777096194
1.2774341334664014,-2.521698475,-3.799199262
1.2574204392678934,-2.581904705,-3.839376378
1.2686971233161135,-2.598309308,-3.867052552
1.2997370551204876,-2.534473438,-3.834290538
1.3236006397240678,-2.489628614,-3.813282734
1.2472500082553657,-2.51218482,-3.759491887
1.2186061127483998,-2.507295533,-3.72597381
1.2669486868408528,-2.49193941,-3.758964201
1.263467914955052,-2.497677407,-3.761228617
1.2458441519880266,-2.525559329,-3.771492709
1.2250192560722917,-2.563464044,-3.788575955
1.2174719830804623,-2.541054292,-3.758603399
1.2384973582796637,-2.504273675,-3.742861602
1.2594948282882297,-2.517048527,-3.77663883
1.2791741907593592,-2.505544905,-3.784833801
1.3029664400636634,-2.463281137,-3.76635749
1.2816792470283882,-2.469327278,-3.75105812
1.2486453899921106,-2.519988615,-3.768719315
1.2306258063067483,-2.558652048,-3.789425452
1.2172379484033191,-2.554325022,-3.771661501
1.2528266889344117,-2.548718501,-3.801611136
1.2867274184713988,-2.496313791,-3.783111319
1.3307749601280099,-2.477414828,-3.808260328
1.3603946950083337,-2.48637233,-3.846852009
1.3219260727559212,-2.475116974,-3.797142448
1.2560121821202543,-2.509501675,-3.765628537
1.2235580243008677,-2.574679762,-3.798317788
1.1912192504175054,-2.587523756,-3.778789118
1.2073209873448751,-2.539671527,-3.747078901
1.2643375849138714,-2.487888308,-3.752291135
1.2832774189680665,-2.480198736,-3.76352456
1.2904068704144707,-2.479558472,-3.770042304
1.2877955940843537,-2.488245108,-3.776106051
1.267725903437744,-2.515043854,-3.782842862
1.2637350268120164,-2.541343866,-3.805156752
1.2737159817461159,-2.562960931,-3.836721327
1.2956520188026657,-2.544538838,-3.840235833
1.313474781078039,-2.516753145,-3.830274885
1.2960683139526097,-2.521255517,-3.817396185
1.2818920059530863,-2.475850776,-3.757797552
1.268069757757449,-2.449890926,-3.71801418
1.2480055206272023,-2.538712877,-3.786787445
1.2110561760240277,-2.614067471,-3.825198261
1.1724885853126388,-2.605684037,-3.778259965
1.213163567817997,-2.545844185,-3.75909435
1.2484803891932255,-2.497806339,-3.74633067
1.2303936478411122,-2.519649428,-3.750102139
1.2104828632294264,-2.537987191,-3.748551551
1.2267473034439786,-2.552446253,-3.779299916
1.255149934029229,-2.566073523,-3.821318963
1.2296692570626848,-2.586677639,-3.816409771
1.2041062919649381,-2.63544253,-3.839623187
1.1732125123936108,-2.641128821,-3.814420958
1.181488855524763,-2.580001884,-3.761556011
1.1867438882355439,-2.546304219,-3.733142931
1.1743040427864697,-2.560181895,-3.734555367
1.185007050352939,-2.556658422,-3.741744038
1.1781652118008994,-2.552594706,-3.730888306
1.1321429160295404,-2.54101545,-3.673215024
1.0737445789223774,-2.580072646,-3.653869934
1.0845349298226847,-2.626415205,-3.711032518
1.1115191639631135,-2.596703111,-3.708290164
1.1014959868404182,-2.576549777,-3.678117623
1.1136885847572693,-2.558393245,-3.672161881
1.1334225972939327,-2.548178732,-3.681656631
1.126799409177688,-2.553789779,-3.680666142
1.1320283066317876,-2.555350224,-3.687465117
1.1434939419692944,-2.586804853,-3.730401082
1.149413008391817,-2.605187739,-3.754683859
1.186495631723465,-2.587982895,-3.77452982
1.2363117472590888,-2.564328693,-3.80070877
1.227399799003443,-2.536870523,-3.76437186
1.2024666073903765,-2.518390901,-3.72094697
1.187775891241218,-2.516213502,-3.704063888
1.1426032379710775,-2.510105795,-3.652772506
1.1508552655478832,-2.525324404,-3.676228405
1.1685740650500496,-2.590625689,-3.759263473
1.182967887198605,-2.582625225,-3.765678404
1.222043002474738,-2.515940103,-3.738052163
1.251738854669148,-2.482676235,-3.734460125
1.2665769447539845,-2.503568888,-3.770194742
1.303343486483324,-2.482329574,-3.785739582
1.3290790197557283,-2.468491936,-3.797644315
1.3008184791757997,-2.521228203,-3.822107874
1.2371523201405654,-2.552664753,-3.789853178
1.2036907229846319,-2.557532761,-3.761275111
1.2294438563068761,-2.516644408,-3.746181035
1.2465569974315296,-2.488785482,-3.735458515
1.258705549873095,-2.506213251,-3.765010418
1.2577732659911864,-2.504593842,-3.76243343
1.2639950099063904,-2.497980993,-3.762048809
1.293763931,-2.499836849,-3.793689831
1.2865288818525331,-2.538013556,-3.824574758
1.2674953979668577,-2.573102574,-3.84067511
1.2591613236146246,-2.529423567,-3.78867352
1.3022707955684627,-2.466297623,-3.768634243
1.353593171757651,-2.467049813,-3.820773987
1.3229016986729556,-2.49250151,-3.815500168
1.2953635754469006,-2.493249399,-3.788662145
1.2894821934915084,-2.487050742,-3.77661008
1.282140476798427,-2.500054611,-3.782297217
1.2828868877343753,-2.541841185,-3.82483615
1.281020937646557,-2.543169294,-3.82426388
1.3041919787990242,-2.505699137,-3.809929912
1.312185266608105,-2.487402312,-3.799659119
1.2646675527631392,-2.499198561,-3.763979278
1.262753313472284,-2.504082633,-3.766946885
1.3034703457579147,-2.498523443,-3.802053063
1.3256356831375966,-2.509993418,-3.835690722
1.3065342227860661,-2.546995332,-3.853595228
1.2834041695910468,-2.551537072,-3.835027566
1.2936749878074802,-2.522503906,-3.816292313
1.3155461131092663,-2.506223667,-3.821834249
1.2993094926794215,-2.503805181,-3.803180106
1.2651283684103165,-2.524257053,-3.789459528
1.2874505213752976,-2.541669543,-3.829161399
1.315298789373664,-2.564051353,-3.879428077
1.269755312,-2.614658142,-3.884519221
1.1911022800915725,-2.657251365,-3.848457362
1.1853515225381934,-2.612185793,-3.797615842
1.1845383440830097,-2.568980284,-3.753616633
1.1926344230270436,-2.51433659,-3.707078572
1.2341890981690864,-2.45028397,-3.684567883
1.2392350366636107,-2.37316436,-3.612489638
1.2352471237593752,-2.28529919,-3.520609463
1.1904210774270225,-2.282270915,-3.472757928
1.054549828835866,-2.329105735,-3.383732613
0.848481722,-2.378318197,-3.226886909
0.6592345622829869,-2.435705355,-3.095006239
0.5289645101329565,-2.474925605,-3.003987617
0.3588894036433178,-2.569657413,-2.92866618
0.14502402709750958,-2.658408932,-2.803546535
0.082357784,-2.609353341,-2.691784295
0.16341411196746494,-2.498668891,-2.662196366
0.2499428038316689,-2.413309701,-2.663359416
0.3851434897801354,-2.351165327,-2.736375969
0.6150314417479459,-2.256411726,-2.871530649
0.8835119511279917,-2.09763369,-2.98124947
1.0889767526697698,-1.980909382,-3.069982404
1.240673318552992,-1.980981863,-3.221715093
1.3962672758823733,-2.048737948,-3.445051586
1.5486373932998487,-2.140791173,-3.68950712
1.6413734395169877,-2.282079541,-3.923534529
1.695221567285806,-2.403891193,-4.09920255
1.6826013678203278,-2.433677909,-4.116351429
1.677414789049983,-2.442726718,-4.120211584
1.6745320405564459,-2.472894916,-4.147518348
1.6597580161716534,-2.517443709,-4.177296867
1.6531101004543252,-2.546954764,-4.200173497
1.6044469456386714,-2.559344274,-4.163880173
1.5355693828562074,-2.605460427,-4.141102668
1.483302480075519,-2.648212163,-4.131586971
1.4647511025900355,-2.606955597,-4.071783821
1.454345303116317,-2.539378123,-3.993815207
1.4528212951831134,-2.486353572,-3.93926731
1.4033313165116674,-2.482209113,-3.885627034
1.338137631642032,-2.489190459,-3.827380631
1.3218411463083994,-2.463258072,-3.785169517
1.2912256876388504,-2.456021522,-3.747361155
1.255093660356717,-2.481369807,-3.736540565
1.2433375603363146,-2.474857075,-3.718258802
1.2529262511687336,-2.435983839,-3.688996178
1.3051153660422241,-2.417292427,-3.722479388
1.3385659261940819,-2.41945004,-3.758061031
1.3522971497867633,-2.437188136,-3.789546564
1.3447195811616492,-2.451561337,-3.796360719
1.2562639452560511,-2.459872304,-3.716251877
1.1866972926674222,-2.486429121,-3.673207477
1.2067634322927379,-2.521997487,-3.728813709
1.2370389318521027,-2.489630717,-3.726720968
1.2565593907821648,-2.444400918,-3.701034908
1.2684630068889953,-2.442945958,-3.711518526
1.2568027776794568,-2.478559934,-3.735427164
1.2806269483249964,-2.466943723,-3.747606787
1.2839328082606685,-2.414940268,-3.698966428
1.2423447934151415,-2.459433086,-3.701905178
1.2427058751651046,-2.525047632,-3.767835416
1.2756669735411406,-2.502080187,-3.777802052
1.2635649408304759,-2.447455695,-3.711088982
1.283159224823473,-2.404105774,-3.687334904
1.337189930886484,-2.419145873,-3.75641031
1.313667138565046,-2.434663007,-3.748407966
1.292705882296874,-2.436595223,-3.729382488
1.289911377701874,-2.451719353,-3.741688288
1.2252194355195989,-2.475655671,-3.700944382
1.1777004988476316,-2.494891874,-3.672671977
1.160812116879266,-2.481365036,-3.642254045
1.202733549294499,-2.452916677,-3.655720264
1.2540323997780172,-2.421981368,-3.676101275
1.2357093978588738,-2.417923143,-3.65371663
1.2434766885121233,-2.428809002,-3.672350868
1.2249767489364063,-2.462747313,-3.687794424
1.210566381602099,-2.491317582,-3.701959985
1.2565150022214093,-2.515595215,-3.772213781
1.2565664093708322,-2.482380293,-3.739053816
1.282909177043667,-2.413768235,-3.696767573
1.2788815995969487,-2.405147678,-3.684099789
1.1901292496670801,-2.418143655,-3.608335383
1.2122562232983385,-2.413102978,-3.625447342
1.2340564566306425,-2.414445043,-3.648580546
1.1955519120299585,-2.441726743,-3.637352197
1.1657987871535322,-2.489333694,-3.655225312
1.1769938101814876,-2.480848968,-3.657958656
1.2014950882443334,-2.412488656,-3.614085784
1.2226801635780313,-2.348578441,-3.571329079
1.2032304061326915,-2.368554517,-3.571850411
1.1969724138321298,-2.39802912,-3.595086308
1.224066199864905,-2.380445753,-3.604604798
1.229540840576531,-2.372066099,-3.601662416
1.2514289326214212,-2.447420618,-3.6988932
1.276950960317942,-2.49586847,-3.772879663
1.2243039612008764,-2.466730899,-3.691111031
1.2075801096391527,-2.415805266,-3.623463627
1.2369637055340383,-2.389602279,-3.626637974
1.213420626883972,-2.389208221,-3.602711315
1.1421939871634228,-2.408588007,-3.550863083
1.1064044208298076,-2.421623684,-3.528116487
1.139190049484377,-2.420164448,-3.559477767
1.1520826667420037,-2.440793253,-3.592983332
1.162091653,-2.409231828,-3.571378675
1.171363220031569,-2.361878454,-3.533292289
1.1722156312995686,-2.351459386,-3.523760169
1.194743191794755,-2.343280313,-3.53806453
1.2072733886234333,-2.345149605,-3.552433881
1.2045310035286463,-2.360349893,-3.564920188
1.2039803786058354,-2.37122766,-3.575293284
1.1409841410510917,-2.394712944,-3.535816615
1.1206170182076753,-2.395112147,-3.515843827
1.1239741197077344,-2.377138882,-3.501193998
1.1367945378323503,-2.338058635,-3.474916225
1.1915150031486705,-2.313362427,-3.5049073
1.2000525712252825,-2.311264648,-3.511363699
1.1696705754018386,-2.315066034,-3.48484383
1.1912134861559205,-2.318627187,-3.509957679
1.1767391460047725,-2.350749076,-3.527566979
1.1280939734253532,-2.362773062,-3.490925257
1.1364263855866774,-2.310904449,-3.447424173
1.1201556182614787,-2.282537388,-3.402792946
1.1148432068848306,-2.286000083,-3.400945638
1.1583411454325871,-2.274501898,-3.432920126
1.1671500782358235,-2.267855512,-3.435045951
1.1236656507472755,-2.269299584,-3.39302392
1.1103000527205176,-2.270641597,-3.381024713
1.1134301464426943,-2.298709873,-3.412239187
1.1212369935860456,-2.28662672,-3.407937779
1.1253394886054267,-2.235840666,-3.361253602
1.115029288110613,-2.223419893,-3.338519704
1.1270608246513991,-2.227811193,-3.354948385
1.1246652737252139,-2.23214829,-3.35691428
1.094831362477955,-2.219734592,-3.314660536
1.110545988363097,-2.215102269,-3.325700678
1.1237593942017554,-2.265763996,-3.389597508
1.1038614059814065,-2.24475751,-3.348714606
1.1139837336648388,-2.186293524,-3.300370492
1.126018313418221,-2.155440976,-3.281525077
1.1131377573967005,-2.147831397,-3.261004108
1.093044835242291,-2.143466678,-3.236559227
1.0789083441604124,-2.150519855,-3.229486268
1.0738773089092006,-2.193283181,-3.267247953
1.0671917947277534,-2.264107064,-3.331401469
1.0661168327138035,-2.263221087,-3.329399712
1.0857246929019506,-2.177929303,-3.263695714
1.0736437439589517,-2.151321925,-3.225027136
1.0792933459297944,-2.106285392,-3.185657127
1.0996647649354938,-2.083184355,-3.182925811
1.0840069679591573,-2.114370183,-3.198468092
1.0660118485806909,-2.136211362,-3.202294833
1.049396860538088,-2.155744245,-3.205202255
1.0168987441080324,-2.166099905,-3.183065196
1.0098649257534085,-2.164936634,-3.174867761
1.062115652,-2.13974486,-3.201972516
1.1014927104627337,-2.106676868,-3.208247042
1.1019346602908666,-2.117113787,-3.219103799
1.1036325543666645,-2.14328442,-3.247005766
1.0693800671669482,-2.163850767,-3.233316561
1.051094839666539,-2.191406824,-3.242607305
1.0671507259733555,-2.248394539,-3.31562143
1.062169890858262,-2.297323327,-3.359568949
1.0825720167655057,-2.263481298,-3.346131569
1.109362114,-2.21766722,-3.327137635
1.116108914141441,-2.229925808,-3.346128326
1.1360781394563233,-2.253707181,-3.38986618
1.151464874,-2.274818762,-3.426362577
1.1648771091108656,-2.31112776,-3.476085824
1.1179059386430295,-2.407412923,-3.525377419
1.0638727097279912,-2.418489705,-3.482400305
1.1068318430097872,-2.36303253,-3.469900004
1.1440496143491745,-2.35241188,-3.496503038
1.1646908237991391,-2.332322554,-3.497076159
1.1912118485733028,-2.340351978,-3.531631947
1.195310379434671,-2.388401485,-3.583763897
1.1749954699023455,-2.418487205,-3.593545319
1.1252851656869927,-2.450608617,-3.575966341
1.1128260509439603,-2.504455264,-3.61736249
1.1509903517279254,-2.508217074,-3.65933319
1.1789254947635146,-2.459316269,-3.638344045
1.1933137674775793,-2.432313525,-3.625700671
1.2335452117847059,-2.441544605,-3.675175383
1.2077195021027747,-2.465518113,-3.673289545
1.1843795362574319,-2.46579964,-3.650233822
1.1895439723947114,-2.45916533,-3.648776596
1.189417679167702,-2.493982257,-3.683464113
1.2142965657822176,-2.513994856,-3.72835917
1.251507547268085,-2.471584181,-3.723153154
1.2814225283239424,-2.460651933,-3.742142343
1.2875256476493826,-2.468574062,-3.756173845
1.2995134248246514,-2.436838373,-3.736450988
1.261648425001609,-2.424049526,-3.685805157
1.2162923557830558,-2.490766228,-3.70713585
1.2338558809599447,-2.573539107,-3.807472717
1.241587939640912,-2.571151598,-3.8128555
1.2157121371723434,-2.505059593,-3.720867198
1.2320577178650383,-2.458377049,-3.690474026
1.294824494619602,-2.461296779,-3.756154315
1.3267337351284658,-2.489227759,-3.816022681
1.2919154957717034,-2.486267649,-3.778253938
1.248545329646816,-2.484134581,-3.732750723
1.2197366397912028,-2.506254297,-3.726064388
1.2192415795752984,-2.54056146,-3.759878228
1.246051815289132,-2.533325025,-3.779478329
1.2588790024056402,-2.500369471,-3.759348738
1.2741698369270722,-2.476483747,-3.750727828
1.2769866175284663,-2.456772161,-3.733805626
1.2824671705427184,-2.486447396,-3.768953013
1.2846247672899382,-2.514326525,-3.799007704
1.2615494771910771,-2.505884922,-3.767533149
1.2545672720644638,-2.541360312,-3.796018033
1.2421941077621885,-2.543004166,-3.785278702
1.2617837010083284,-2.489663435,-3.751524259
1.3219639979176536,-2.462853146,-3.784918402
1.2986749299931954,-2.465380472,-3.764120726
1.241235787842597,-2.456337208,-3.69765961
1.2656795274077666,-2.454072131,-3.719867951
1.2867986230852213,-2.495332422,-3.782221366
1.278877282304608,-2.53989438,-3.818859041
1.262600588313011,-2.554193044,-3.816876435
1.2832223969606935,-2.52400315,-3.807292111
1.343895974247332,-2.478539536,-3.822507142
1.3327083761094092,-2.484993581,-3.817832877
1.256853097064746,-2.492532703,-3.749502055
1.2501248968962344,-2.464081251,-3.71427004
1.266194310114457,-2.462639654,-3.728889808
1.2403166801800933,-2.514325164,-3.754700164
1.2340561582866496,-2.539894722,-3.77401564
1.2610495927370562,-2.500456133,-3.76157155
1.2682675357773745,-2.456081263,-3.724416594
1.2514597598259698,-2.42149895,-3.673062971
1.2577695522940429,-2.39451753,-3.65235665
1.2877312800378033,-2.445414708,-3.733214509
1.2715836800213254,-2.532273095,-3.803977304
1.238498122730896,-2.51810728,-3.756694707
1.2331538360030723,-2.527737354,-3.760939976
1.243038396177083,-2.526128753,-3.769234847
1.2725218462731867,-2.462050621,-3.734609514
1.27684396,-2.458775474,-3.735665201
1.2843080845823593,-2.484128839,-3.768552905
1.2974309758387645,-2.475781409,-3.773307583
1.267090473212295,-2.482360963,-3.749539504
1.240184159909931,-2.502150609,-3.742421322
1.2184227520846245,-2.540413261,-3.758924704
1.2006472326693327,-2.556708051,-3.757465861
1.2414117470846493,-2.501380986,-3.742871564
1.2936971715453642,-2.475697762,-3.769462185
1.3141079869516572,-2.482407296,-3.796581879
1.3176140334538595,-2.464618256,-3.782332468
1.2877613649418327,-2.467477467,-3.75536398
1.246305647371339,-2.486926198,-3.733283519
1.2662027431330227,-2.511269697,-3.777533171
1.2499692942272806,-2.551565171,-3.801630528
1.2137830823781566,-2.527386416,-3.741260793
1.2345443249601311,-2.492252916,-3.726876295
1.257375390638135,-2.505586425,-3.763031663
1.2869420599817993,-2.486201265,-3.773244192
1.312345886720937,-2.481254555,-3.793684056
1.277242882,-2.486881064,-3.764153579
1.215176168341635,-2.504396303,-3.71960591
1.1915528267120192,-2.548837824,-3.740475583
1.182940114869613,-2.555736542,-3.738765615
1.2012785186658022,-2.532043264,-3.73339789
1.2276396822200937,-2.504978224,-3.732702951
1.2362625248164665,-2.495321243,-3.731656377
1.2217676342817732,-2.502047689,-3.723870032
1.2398676929394847,-2.501983626,-3.74193139
1.2604602991475709,-2.505326676,-3.765881325
1.2400217758957317,-2.533092084,-3.773204019
1.2328419902388137,-2.542144605,-3.775059951
1.2434441901653117,-2.501302023,-3.744800429
1.245229904575766,-2.436926743,-3.682229438
1.2540735280113569,-2.417700984,-3.671812855
1.2718950690903228,-2.491427546,-3.76336643
1.257887108788083,-2.521952983,-3.779931967
1.2493961784775678,-2.516665534,-3.766141447
1.2809109380934618,-2.557588518,-3.83857307
1.286002883448851,-2.575279997,-3.861390988
1.2412601404529982,-2.545061127,-3.786396634
1.1842529121961358,-2.515133939,-3.699447421
1.2058764185069657,-2.497955597,-3.703909886
1.2585195681566108,-2.500041606,-3.75863392
1.2772482935799456,-2.497503336,-3.774827098
1.2681316659077955,-2.506191383,-3.774421528
1.2578599148755547,-2.527806876,-3.785757208
1.2268492353406086,-2.570087212,-3.797000496
1.204881777729697,-2.557141408,-3.762095668
1.2229412558477528,-2.511418063,-3.734423058
1.236961489957942,-2.463786958,-3.70081458
1.2632775758149917,-2.451488462,-3.71487997
1.2940763773945845,-2.500025149,-3.794190273
1.2870867543021594,-2.518182624,-3.805343138
1.267307855363763,-2.515662627,-3.783037639
1.2632253989926292,-2.559604246,-3.822857654
1.2182387564495083,-2.573585237,-3.791892382
1.192805876,-2.542717834,-3.735603525
1.2327015778108286,-2.511837145,-3.744601337
1.2599322562202504,-2.491154204,-3.751159295
1.2768041227345686,-2.482065449,-3.758944593
1.3022566944789744,-2.489377968,-3.791699442
1.3076429518003778,-2.502913912,-3.810638249
1.2709548634319072,-2.542432683,-3.813492299
1.2076193249466938,-2.582099061,-3.789797347
1.2300334121118985,-2.539012789,-3.769087929
1.2924453401253782,-2.484641412,-3.777166547
1.3101733520503402,-2.464511794,-3.774769099
1.3061718419473094,-2.480624676,-3.786835064
1.2778050263691196,-2.508830705,-3.786673584
1.234286137583043,-2.516880325,-3.751250693
1.251057682201549,-2.530576752,-3.781729741
1.2313993555387626,-2.567516407,-3.798993512
1.191648717157183,-2.575361062,-3.767082715
1.2150376154973692,-2.55379607,-3.768894043
1.2558786314467971,-2.523437677,-3.779364037
1.2725867143363077,-2.499139699,-3.77179178
1.2639959419807452,-2.51004415,-3.774137016
1.2664004546178702,-2.530139266,-3.796619595
1.264802867061342,-2.53538874,-3.800239199
1.259220817361265,-2.567586362,-3.826852086
1.2514681877411538,-2.571569923,-3.823119357
1.272124519,-2.533361938,-3.805556545
1.265106442330401,-2.526102326,-3.791269947
1.251887796417234,-2.519205776,-3.771198128
1.279361248715857,-2.503591794,-3.78305121
1.2802847095678094,-2.504690632,-3.785028897
1.280203039856217,-2.51633912,-3.796626269
1.2276315925032415,-2.555417439,-3.783136387
1.1773726379039757,-2.583411625,-3.760863215
1.2081904392447405,-2.554768871,-3.763028783
1.2349846017626394,-2.51649323,-3.751525948
1.251000255979128,-2.52207453,-3.773154487
1.2578555196044152,-2.52535235,-3.783313495
1.2495604587043434,-2.515127651,-3.764781858
1.2479255702109224,-2.517609931,-3.765600227
1.2561237591657206,-2.533556755,-3.789760735
1.2411653855770766,-2.571946106,-3.813230662
1.220563593493761,-2.58141962,-3.802086008
1.2851531771662672,-2.534651396,-3.819861735
1.3063433169723586,-2.501447609,-3.807843782
1.2446315411085391,-2.511232381,-3.755973879
1.2489557312450201,-2.519199017,-3.768243491
1.273587091358194,-2.532546336,-3.806199583
1.2626367579644981,-2.542433956,-3.805187334
1.2325698137694343,-2.575046158,-3.80773256
1.244293258123518,-2.581546311,-3.825917525
1.2525963104778786,-2.542604115,-3.795247827
1.2303277183855656,-2.523746786,-3.754110627
1.233128530369234,-2.520754277,-3.753942484
1.257762827809835,-2.492555433,-3.750428328
1.2456387802198448,-2.479125714,-3.724859132
1.2476436358180882,-2.497648063,-3.745384588
1.2504535902450757,-2.551143941,-3.801680737
1.234834531882172,-2.617234152,-3.852146285
1.2315762757938478,-2.600143495,-3.831808926
1.2563623699928006,-2.554031423,-3.810461166
1.2730200668335954,-2.502098431,-3.775183107
1.2716683835242186,-2.487568086,-3.759323117
1.2376136385537457,-2.515665719,-3.753360641
1.2173480033218864,-2.544540142,-3.761958755
1.241652609348217,-2.559682071,-3.801424793
1.2269746402338555,-2.58815993,-3.815209605
1.225894882470178,-2.592393741,-3.818372713
1.247508898689449,-2.528076573,-3.775671805
1.280303990258299,-2.496322128,-3.776689736
1.3288260276253117,-2.523458627,-3.852400008
1.3167930126185132,-2.526035919,-3.842938706
1.2770072081543473,-2.522495392,-3.799531478
1.2629039834256983,-2.545687493,-3.808629265
1.2164709722808396,-2.586568298,-3.803141411
1.1680537806425215,-2.60859487,-3.776736116
1.1963531860146768,-2.570791721,-3.767214758
1.2422204993658674,-2.519759756,-3.762020428
1.2557733884747533,-2.508941245,-3.764783681
1.2575617907367451,-2.526588635,-3.784278029
1.2434124628272196,-2.543870312,-3.78735756
1.2405441381205455,-2.557933467,-3.798520483
1.2340301922286776,-2.595740413,-3.82984118
1.2047541024080266,-2.614018965,-3.81883646
1.2263765486663405,-2.578851991,-3.805297616
1.2395182183001645,-2.554330109,-3.793926344
1.2326761809552556,-2.528988469,-3.761732319
1.266981425268076,-2.515895147,-3.78294669
1.2669930593983485,-2.518692051,-3.785769086
1.2497870996512073,-2.52120359,-3.771060076
1.2598037125060972,-2.548112722,-3.807992963
1.2648007094337599,-2.580677195,-3.845554564
1.2638399291972247,-2.571477539,-3.835417936
1.259585318027277,-2.546723421,-3.806431252
1.2327604620730803,-2.518045501,-3.750906216
1.2189889932097924,-2.51017903,-3.72924999
1.2479357026737772,-2.527315231,-3.775354767
1.2705024709650488,-2.53870478,-3.809334441
1.259108566,-2.5337075,-3.792913927
1.2142236279741572,-2.556372028,-3.77071207
1.1890645283959107,-2.557799028,-3.746980532
1.2093827712270317,-2.548212274,-3.757660566
1.2251333100899726,-2.558638114,-3.783853612
1.2369687477921358,-2.526936211,-3.764000114
1.2520578256664465,-2.54432901,-3.796440589
1.2633890681751327,-2.570230594,-3.833672943
1.2959221948741286,-2.557072862,-3.853064973
1.3192751030993803,-2.58709912,-3.906443068
1.2703289471812904,-2.607641728,-3.878059068
1.2196576344266923,-2.571680059,-3.791426237
1.2418693449090492,-2.537873821,-3.779863629
1.2441907112710386,-2.532385742,-3.77669797
1.2454546397030495,-2.53224383,-3.777768142
1.2508905148885106,-2.530564844,-3.781502741
1.235030961229732,-2.553922396,-3.78905518
1.239385979861896,-2.571201059,-3.810709377
1.2272931389903294,-2.606102051,-3.833492106
1.1923964205210067,-2.601557176,-3.794028234
1.1900686336564061,-2.552524567,-3.742645817
1.229875046647164,-2.536715416,-3.766629704
1.2727775598249946,-2.514329547,-3.787191857
1.3015569124651152,-2.493089349,-3.79474332
1.2962809437009715,-2.527373824,-3.823727581
1.271698043084075,-2.543219051,-3.815009332
1.2524345556477852,-2.579142431,-3.831634878
1.2210133374062244,-2.607414306,-3.828476797
1.234479905,-2.555847984,-3.790397149
1.2481577080058506,-2.519355377,-3.767558143
1.2428708793743553,-2.505835602,-3.748774699
1.2552966065038942,-2.504281387,-3.759689906
1.248984305869359,-2.53056222,-3.779608146
1.2429732641793063,-2.540299628,-3.783314366
1.2647787716189587,-2.56714489,-3.831971993
1.2605146494225439,-2.599922905,-3.860482451
1.2428732492051713,-2.553522553,-3.796490096
1.2533848213332226,-2.505508171,-3.758985952
1.2747519067679953,-2.512012548,-3.786853337
1.2894766175178811,-2.529008984,-3.818579344
1.3030091314660304,-2.524332138,-3.827406746
1.269471497,-2.537260756,-3.806806152
1.2124130549630752,-2.56566775,-3.778169446
1.187293999065134,-2.590003654,-3.777377891
1.2005322140976602,-2.572903111,-3.773535127
1.220454907906145,-2.540383923,-3.760954104
1.2378913978282853,-2.53107672,-3.769032927
1.2887845335213821,-2.516200155,-3.805039682
1.336495928009889,-2.500016588,-3.836585861
1.3680656269360072,-2.5074319,-3.875548275
1.3187212850228816,-2.522657534,-3.841443318
1.2433593272108583,-2.582388674,-3.825841222
1.2121304776545132,-2.604726304,-3.816933554
1.2067405256332953,-2.555777183,-3.762589244
1.2330782146193326,-2.509926126,-3.743061226
1.2374317346172687,-2.484339316,-3.721841158
1.2308846346774305,-2.508537738,-3.739519238
1.2323060632297846,-2.53458468,-3.766965157
1.2580647252505575,-2.532310849,-3.790450682
1.2535741910283684,-2.579007362,-3.832665899
1.2485610908345308,-2.631379148,-3.880053879
1.2745130293203137,-2.592018123,-3.866625417
1.2270115378136388,-2.541575798,-3.768647563
1.2192810999419237,-2.510690227,-3.730036844
1.2541703931864616,-2.497938964,-3.752171078
1.2445179711890784,-2.527937014,-3.772543215
1.2305930776577336,-2.551613171,-3.782284554
1.2264614476109952,-2.559725055,-3.786266128
1.236120266,-2.601087123,-3.837301004
1.2532577392074484,-2.581685635,-3.835013662
1.240349576676583,-2.540662422,-3.781109782
1.2209927823223163,-2.528198655,-3.749291739
1.2599609820966657,-2.512314472,-3.772345906
1.273418409073242,-2.510508231,-3.784030443
1.260586335202093,-2.528382076,-3.789064022
1.268709622880512,-2.540666473,-3.809413907
1.2346305191936793,-2.574665916,-3.809360228
1.2117574104510107,-2.581759684,-3.793604806
1.2310684440947117,-2.548103371,-3.779258234
1.2420836508533106,-2.541168712,-3.783360531
1.247416856628331,-2.537991064,-3.785515669
1.2521298629664706,-2.537488373,-3.789697395
1.2406698462917238,-2.538853372,-3.779600436
1.2459110338819146,-2.563987145,-3.809989605
1.2697275885999768,-2.600674689,-3.870446878
1.2433926582914787,-2.595097471,-3.838563852
1.2328708610412886,-2.546147462,-3.779111771
1.243311235607441,-2.515523336,-3.758895261
1.2589777899356087,-2.534749716,-3.793821258
1.2495366964876962,-2.55760501,-3.807242419
1.2401615410165712,-2.563990522,-3.804217244
1.275280045187338,-2.547585463,-3.822912483
1.267444021302524,-2.559689181,-3.827189047
1.2252865885011421,-2.599563215,-3.824921449
1.205702031820249,-2.590840497,-3.796611627
1.2068313442375196,-2.551989559,-3.758885444
1.2254653330429655,-2.51458386,-3.74012602
1.2453060042706765,-2.532551462,-3.777952745
1.225590192311338,-2.567889123,-3.793563117
1.2364949727633558,-2.552568671,-3.78911748
1.262566636296706,-2.561514637,-3.824156493
1.2525113138569561,-2.618339781,-3.870943207
1.212023695033663,-2.613764978,-3.82586334
1.1894693687786824,-2.574901376,-3.764449277
1.218902418708616,-2.574351181,-3.793312704
1.2543243355970402,-2.536210017,-3.790622982
1.2558706518271678,-2.496962004,-3.752938523
1.2284546209662373,-2.522622437,-3.751152146
1.185319925248675,-2.555815895,-3.741219438
1.1740299389114657,-2.640106712,-3.814227261
1.1780010599098356,-2.701144821,-3.879243907
1.1616245206132214,-2.650686564,-3.81240096
1.1303653866106786,-2.604910445,-3.735372204
1.116168402944967,-2.59497929,-3.711216817
1.1504695307183204,-2.598828963,-3.749373783
1.1777333298070327,-2.612420157,-3.79019557
1.1513073533714984,-2.602106219,-3.753482362
1.1285932146927702,-2.632962397,-3.761644482
1.109911747442842,-2.673770964,-3.78374941
1.0984387809623528,-2.664993639,-3.763480145
1.1129243262396185,-2.623160406,-3.736151571
1.154490893453685,-2.581458757,-3.736045494
1.1904813921583581,-2.571819906,-3.762376428
1.1821833751757551,-2.588878521,-3.771148388
1.1339309470841847,-2.615688105,-3.749711603
1.0705862813702864,-2.654089832,-3.724764841
1.034420492,-2.692567185,-3.727046151
1.0407199983280997,-2.676623803,-3.717412803
1.094899286864334,-2.628347041,-3.723317932
1.1284478098713162,-2.595379486,-3.723884727
1.1429735325494121,-2.590644278,-3.733711793
1.150803638079834,-2.569377073,-3.720287862
1.125777598645919,-2.595137613,-3.720985297
1.1144681446557725,-2.619634769,-3.734179503
1.110482520045603,-2.605826686,-3.716382175
1.0983021138115092,-2.622893189,-3.721223489
1.106303639387027,-2.571010247,-3.677351095
1.130871939297567,-2.541872751,-3.672814205
1.169877007641069,-2.582283725,-3.752221776
1.2037589047768398,-2.585805375,-3.789636146
1.2192990286682752,-2.561363434,-3.78077781
1.2039061521305345,-2.558056761,-3.76206508
1.1570076807046017,-2.589681669,-3.746764458
1.1751916152894335,-2.618153439,-3.793428342
1.2168933790638288,-2.589841965,-3.806816188
1.2322010876394647,-2.55031871,-3.782592304
1.2592124283891328,-2.531444289,-3.790706158
1.2518139071283332,-2.525774255,-3.777631736
1.2360925958062883,-2.534102485,-3.770236681
1.2267168287656665,-2.543942722,-3.770731858
1.229648846,-2.569831728,-3.799575316
1.2361779888883977,-2.610959745,-3.847192126
1.2338372662582056,-2.61553541,-3.849454824
1.2509574551067952,-2.547079218,-3.7981384
1.2560942647957556,-2.512000657,-3.768125482
1.264196504516488,-2.547406095,-3.811637405
1.2937227961453466,-2.540575808,-3.834368409
1.2721007043887276,-2.533923051,-3.806080205
1.236138604994788,-2.555854605,-3.792073969
1.2320320082470744,-2.589577143,-3.82171153
1.239773169537037,-2.601937565,-3.841804828
1.2580985206203583,-2.563879779,-3.822040906
1.2772632421472894,-2.523780928,-3.801087352
1.2977413335902408,-2.499587327,-3.797381112
1.2999467412260617,-2.513535486,-3.813566761
1.273267036699174,-2.528950429,-3.802306489
1.2526462544186656,-2.521343468,-3.774072675
1.2464725442007578,-2.564592921,-3.811148606
1.2526069980659933,-2.609123616,-3.861796565
1.3041205038294377,-2.572529674,-3.87671923
1.3012209581412288,-2.537025718,-3.838296916
1.280776484827322,-2.536163811,-3.81700755
1.2833107013528178,-2.545630963,-3.829081709
1.2429143568696712,-2.551284583,-3.7943159
1.2275215318710366,-2.548711061,-3.776313394
1.2132955977717066,-2.57355732,-3.786951266
1.1992445926590998,-2.64891125,-3.848207444
1.2136290231959337,-2.657190597,-3.870867509
1.2278979110399737,-2.629668769,-3.857656868
1.2209186846219877,-2.605639857,-3.826643728
1.2068384431877994,-2.584756486,-3.791686609
1.201058061640164,-2.597043389,-3.798199652
1.1681849683587482,-2.608431196,-3.776691971
1.1583995502164586,-2.564182709,-3.722652577
1.1517401182730505,-2.512463655,-3.664284831
1.1244020477979517,-2.472519041,-3.596973342
1.109368090969093,-2.401038037,-3.510430731
1.0725576943366883,-2.338253329,-3.410855861
0.9715436253713181,-2.332048555,-3.303647543
0.7754675320295946,-2.405648593,-3.181170675
0.5673002219496297,-2.487401113,-3.05475716
0.3697904080398238,-2.596014753,-2.965909994
0.14945939283766568,-2.772715133,-2.922288628
-0.000189713,-2.870626057,-2.870507231
-0.010191802,-2.755926096,-2.745810793
0.066239114,-2.571783896,-2.638113031
0.2485329228117828,-2.442246535,-2.690885204
0.4580859006205246,-2.371262191,-2.829396118
0.6501874434670506,-2.292451922,-2.942696137
0.9087791813841279,-2.157407259,-3.066269494
1.134859195988714,-2.087657491,-3.222578111
1.2374509756391487,-2.170107672,-3.407625875
1.2840542790189187,-2.272334436,-3.556459335
1.4080063687406486,-2.326903005,-3.73500201
1.5832261117511648,-2.363185109,-3.9464906
1.6709801502348627,-2.429755565,-4.100782568
1.662614668509233,-2.51095181,-4.173635637
1.6468123677917237,-2.546643607,-4.193548406
1.6475820022617806,-2.562158185,-4.209835812
1.6099560296011584,-2.605273276,-4.21530136
1.5634091944609185,-2.657042494,-4.220516718
1.5168929250245564,-2.660459897,-4.17741939
1.4816566787047167,-2.625112351,-4.106830911
1.4703259679631968,-2.596176602,-4.066568323
1.452956701,-2.58042436,-4.033474537
1.4060074168116647,-2.553730422,-3.959808613
1.3144070425960648,-2.538666388,-3.853138183
1.2563031390940798,-2.565292573,-3.821653412
1.2241739292219245,-2.584545471,-3.808757556
1.2318049325421976,-2.543297179,-3.775159583
1.246464556146561,-2.518159698,-3.764702443
1.2464685177398747,-2.498751617,-3.745307662
1.2464313335565642,-2.501547499,-3.74804714
1.2353754654467612,-2.528818341,-3.764253462
1.2308945571447167,-2.516916501,-3.747901203
1.243696063435047,-2.551717069,-3.795486804
1.2557080235064677,-2.589102654,-3.844875753
1.2634872254054577,-2.562404916,-3.825968941
1.2666181663497074,-2.524295593,-3.79096297
1.2704021131413008,-2.494107192,-3.764556471
1.249137236434716,-2.491246419,-3.740429032
1.229966859130637,-2.49474895,-3.724774003
1.2328081429604874,-2.496098248,-3.728999586
1.21629575,-2.533960357,-3.750380182
1.1915135837947368,-2.583277344,-3.774857151
1.1890104976541735,-2.584790729,-3.773845531
1.217979809072333,-2.537907832,-3.75594705
1.249622484150868,-2.51086661,-3.760565674
1.2410194257887914,-2.501518253,-3.742647292
1.2038877601687736,-2.48773564,-3.691693664
1.176486401092825,-2.483180018,-3.659695266
1.1815544744066044,-2.502041401,-3.683640267
1.2010916037652242,-2.53921804,-3.740408008
1.2113326460662739,-2.589616754,-3.801062996
1.2065297352548432,-2.575714459,-3.78231293
1.2000954857969934,-2.498834794,-3.699021473
1.2041175388469745,-2.473138184,-3.677342657
1.2022711413622384,-2.477235691,-3.679533955
1.2033112074199634,-2.492994424,-3.696343134
1.2195664880360562,-2.504728781,-3.724388374
1.2116218247374568,-2.517245436,-3.728975769
1.1540470915399867,-2.555882733,-3.710002094
1.140256293116274,-2.545204195,-3.685524949
1.168226186,-2.495897333,-3.664226575
1.2058526173755952,-2.448511524,-3.654457695
1.2135776382971943,-2.436645923,-3.650282565
1.216815958258768,-2.463990078,-3.680887887
1.216167989574548,-2.47649979,-3.692727725
1.1934225679708073,-2.466859132,-3.660356023
1.1713791029511214,-2.526271244,-3.697746779
1.1552981969514113,-2.586883374,-3.742278243
1.1594233237491725,-2.549701741,-3.70920349
1.173166696500502,-2.503494405,-3.676742808
1.1957404475510367,-2.476931068,-3.672780215
1.194846088256481,-2.463222003,-3.658196346
1.1764475017890363,-2.460920235,-3.637465117
1.181827308999343,-2.488525828,-3.670453457
1.1916079523793035,-2.520180356,-3.711872306
1.1744996902750409,-2.529574368,-3.70411787
1.1577905204625416,-2.515843095,-3.673737085
1.152505999546689,-2.489030599,-3.6416412
1.1289496276540096,-2.450091635,-3.579083569
1.1288772083620506,-2.430867054,-3.559815281
1.1543311779364804,-2.428820477,-3.58323403
1.1696721601093503,-2.463724854,-3.633483519
1.1646908749634801,-2.498604772,-3.663390487
1.160051845790066,-2.503824375,-3.663951718
1.1656933655264519,-2.507237334,-3.672989996
1.1660347800717337,-2.507021039,-3.673113187
