Lead I,Lead II,Lead III,aVR,aVL,aVF,V1',V2',V3',V4',V5',V6'
0.2137579401923529,-3.742373687,-3.956442118,1.764307873,2.085100029,-3.849407902,0,0,0,0,0,0
0.16339405182673467,-3.839502434,-4.002951242,1.838054191,2.083172647,-3.921226838,0,0,0,0,0,0
0.16598355447040095,-3.87798377,-4.044057867,1.856000108,2.105020711,-3.961020819,0,0,0,0,0,0
0.17764701610830222,-3.851807919,-4.029528641,1.837080452,2.103587829,-3.94066828,0,0,0,0,0,0
0.15349040185098672,-3.825540194,-3.97910192,1.836024896,2.066296161,-3.902321057,0,0,0,0,0,0
0.13703026173299807,-3.831681473,-3.968805298,1.847325605,2.05291778,-3.900243386,0,0,0,0,0,0
0.17966128515678773,-3.783619101,-3.963352972,1.801978908,2.071507129,-3.873486037,0,0,0,0,0,0
0.20089498430645683,-3.764600554,-3.965548661,1.781852785,2.083221823,-3.865074608,0,0,0,0,0,0
0.18659902757916608,-3.784269878,-3.970923212,1.798835425,2.07876112,-3.877596545,0,0,0,0,0,0
0.17912575013365897,-3.788359985,-3.967537593,1.804617117,2.073331671,-3.877948789,0,0,0,0,0,0
0.16483473740758234,-3.834813358,-3.999735188,1.834989311,2.082284963,-3.917274273,0,0,0,0,0,0
0.1639199551521693,-3.840505878,-4.00452023,1.838292961,2.084220093,-3.922513054,0,0,0,0,0,0
0.18250071219030617,-3.81236566,-3.994971819,1.814932474,2.088736266,-3.90366874,0,0,0,0,0,0
0.21706247876758106,-3.789817875,-4.00698263,1.786377698,2.112022554,-3.898400252,0,0,0,0,0,0
0.23896864017674324,-3.771406604,-4.010447336,1.766218982,2.124707988,-3.89092697,0,0,0,0,0,0
0.19807354177640704,-3.77059381,-3.968726549,1.786260134,2.083400046,-3.86966018,0,0,0,0,0,0
0.18879291931539513,-3.750593089,-3.939449744,1.780900085,2.064121332,-3.845021416,0,0,0,0,0,0
0.19345969596100918,-3.723992291,-3.917520794,1.765266297,2.055490245,-3.820756542,0,0,0,0,0,0
0.16139883296260132,-3.795289467,-3.956735487,1.816945317,2.05906716,-3.876012477,0,0,0,0,0,0
0.1694989260871589,-3.870947316,-4.040501143,1.850724195,2.105000035,-3.95572423,0,0,0,0,0,0
0.19169419094573897,-3.832900905,-4.024686934,1.820603357,2.108190562,-3.928793919,0,0,0,0,0,0
0.17102330276394023,-3.787691035,-3.95880848,1.808333866,2.064915891,-3.873249758,0,0,0,0,0,0
0.16082714083468252,-3.771541493,-3.932422843,1.805357176,2.046624992,-3.851982168,0,0,0,0,0,0
0.16512289323497628,-3.753171634,-3.918323651,1.794024371,2.041723272,-3.835747643,0,0,0,0,0,0
0.16844377302506355,-3.743742623,-3.91225194,1.787649425,2.040347856,-3.827997281,0,0,0,0,0,0
0.18128305622199878,-3.761532172,-3.942942682,1.790124558,2.062112869,-3.852237427,0,0,0,0,0,0
0.17994365762231726,-3.776651345,-3.956697527,1.798353844,2.068320592,-3.866674436,0,0,0,0,0,0
0.13993706811869278,-3.816162124,-3.956137703,1.838112528,2.048037386,-3.886149913,0,0,0,0,0,0
0.12154880756920543,-3.791250853,-3.912829738,1.834851023,2.017189273,-3.852040296,0,0,0,0,0,0
0.13744395433698883,-3.766977171,-3.904458394,1.814766608,2.020951174,-3.835717783,0,0,0,0,0,0
0.15678132855881774,-3.777145103,-3.933993576,1.810181887,2.045387452,-3.85556934,0,0,0,0,0,0
0.17256882339446294,-3.748138235,-3.920810608,1.787784706,2.046689716,-3.834474421,0,0,0,0,0,0
0.19101844280752253,-3.734658623,-3.925758414,1.77182009,2.058388428,-3.830208519,0,0,0,0,0,0
0.18038132770085685,-3.734536977,-3.914983853,1.777077825,2.04768259,-3.824760415,0,0,0,0,0,0
0.15932960048063005,-3.734386783,-3.893760857,1.787528591,2.026545229,-3.81407382,0,0,0,0,0,0
0.16353052215386904,-3.774779493,-3.938351524,1.805624486,2.050941023,-3.856565509,0,0,0,0,0,0
0.11129946468850334,-3.800277533,-3.911663448,1.844489034,2.011481456,-3.855970491,0,0,0,0,0,0
0.10289041768481809,-3.76741407,-3.870399335,1.832261826,1.986644876,-3.818906702,0,0,0,0,0,0
0.1388631590556575,-3.750238324,-3.889158432,1.805687583,2.014010795,-3.819698378,0,0,0,0,0,0
0.12233808266192084,-3.727909619,-3.850323153,1.802785768,1.986330618,-3.789116386,0,0,0,0,0,0
0.11971170236400297,-3.705436627,-3.825251408,1.792862462,1.972481555,-3.765344018,0,0,0,0,0,0
0.12440375126833683,-3.705085935,-3.829569727,1.790341092,1.976986739,-3.767327831,0,0,0,0,0,0
0.11787070397923712,-3.722932913,-3.840878431,1.802531104,1.979374568,-3.781905672,0,0,0,0,0,0
0.14692775564243554,-3.770225381,-3.91722214,1.811648813,2.032074948,-3.843723761,0,0,0,0,0,0
0.13504546839776213,-3.793312628,-3.928419479,1.82913358,2.031732474,-3.860866053,0,0,0,0,0,0
0.11232089987867303,-3.75450036,-3.866877008,1.82108973,1.989598954,-3.810688684,0,0,0,0,0,0
0.10118805739125089,-3.71197819,-3.813206819,1.805395066,1.957197438,-3.762592504,0,0,0,0,0,0
0.10468571142126099,-3.703388269,-3.808151868,1.799351279,1.95641879,-3.755770068,0,0,0,0,0,0
0.13765728487522008,-3.686801987,-3.824545664,1.774572351,1.981101474,-3.755673825,0,0,0,0,0,0
0.1431309971069434,-3.651741154,-3.794927864,1.754305079,1.969029431,-3.723334509,0,0,0,0,0,0
0.13979587915925437,-3.675926406,-3.81579405,1.768065263,1.977794964,-3.745860228,0,0,0,0,0,0
0.11558952700379181,-3.732279461,-3.847956949,1.808344967,1.981773238,-3.790118205,0,0,0,0,0,0
0.074641841,-3.769215868,-3.843937995,1.847287014,1.959289918,-3.806576932,0,0,0,0,0,0
0.064744481,-3.738152059,-3.803004412,1.836703789,1.933874447,-3.770578236,0,0,0,0,0,0
0.091433773,-3.68699817,-3.778522155,1.797782199,1.934977964,-3.732760163,0,0,0,0,0,0
0.11093054957717541,-3.665207099,-3.776220042,1.777138275,1.943575296,-3.72071357,0,0,0,0,0,0
0.12442946481348359,-3.650821684,-3.775354089,1.763196109,1.949891777,-3.713087886,0,0,0,0,0,0
0.13634016985644498,-3.658804088,-3.795224701,1.761231959,1.965782436,-3.727014395,0,0,0,0,0,0
0.14882445451271242,-3.662724114,-3.811595441,1.75694983,1.980209948,-3.737159778,0,0,0,0,0,0
0.16519523576428288,-3.660496588,-3.825748783,1.747650676,1.995472009,-3.743122685,0,0,0,0,0,0
0.12193900103877932,-3.680849505,-3.802875764,1.779455252,1.962407383,-3.741862634,0,0,0,0,0,0
0.037160339848618947,-3.685538487,-3.722781734,1.824189074,1.879971037,-3.70416011,0,0,0,0,0,0
0.05712527,-3.64374324,-3.700936721,1.793308985,1.879030995,-3.672339981,0,0,0,0,0,0
0.11647403461711676,-3.60352187,-3.720077953,1.743523918,1.918275994,-3.661799911,0,0,0,0,0,0
0.098811266,-3.570343216,-3.66922673,1.735765975,1.884018998,-3.619784973,0,0,0,0,0,0
0.076238278,-3.561429182,-3.637724093,1.742595452,1.856981185,-3.599576637,0,0,0,0,0,0
0.11483095425361955,-3.583589082,-3.698475188,1.734379064,1.906653071,-3.641032135,0,0,0,0,0,0
0.11191751330859329,-3.608908932,-3.720856984,1.748495709,1.916387249,-3.664882958,0,0,0,0,0,0
0.057659340495302115,-3.625612627,-3.68330853,1.783976643,1.870483935,-3.654460578,0,0,0,0,0,0
0.061149705789279266,-3.62538809,-3.686605332,1.782119192,1.873877519,-3.655996711,0,0,0,0,0,0
0.07856554,-3.577774768,-3.656415864,1.749604614,1.867490702,-3.617095316,0,0,0,0,0,0
0.094389965,-3.548822293,-3.64329967,1.727216164,1.868844817,-3.596060982,0,0,0,0,0,0
0.126444411,-3.538559025,-3.665055163,1.706057307,1.895749787,-3.601807094,0,0,0,0,0,0
0.1139387270173153,-3.522869786,-3.636888885,1.704465529,1.875413806,-3.579879335,0,0,0,0,0,0
0.084562749,-3.494234949,-3.578906984,1.7048361,1.831734866,-3.536570966,0,0,0,0,0,0
0.067067899,-3.486570958,-3.553703171,1.709751529,1.810385535,-3.520137064,0,0,0,0,0,0
0.04259733,-3.529041593,-3.571709621,1.743222132,1.807153476,-3.550375607,0,0,0,0,0,0
0.039054120917474795,-3.570012349,-3.609117871,1.765479114,1.824085996,-3.58956511,0,0,0,0,0,0
0.071439103,-3.557961069,-3.629418664,1.743260983,1.850428883,-3.593689866,0,0,0,0,0,0
0.138455096,-3.50210123,-3.640633047,1.681823067,1.889544071,-3.571367139,0,0,0,0,0,0
0.15823352606995342,-3.476477407,-3.634803115,1.659121941,1.89651832,-3.555640261,0,0,0,0,0,0
0.092708782,-3.457902684,-3.550696846,1.682596951,1.821702814,-3.504299765,0,0,0,0,0,0
0.001629161,-3.451959973,-3.45365651,1.725165406,1.727642835,-3.452808241,0,0,0,0,0,0
-0.023986223,-3.460626317,-3.436717796,1.74230627,1.706365787,-3.448672057,0,0,0,0,0,0
0.027906115241107365,-3.46495958,-3.492968725,1.718526732,1.76043742,-3.478964152,0,0,0,0,0,0
0.028389220013051362,-3.501980927,-3.53041452,1.736795853,1.77940187,-3.516197723,0,0,0,0,0,0
-0.005695931,-3.516727458,-3.511089351,1.761211695,1.75269671,-3.513908405,0,0,0,0,0,0
1.0394869064553617e-05,-3.463690673,-3.463794045,1.731840139,1.73190222,-3.463742359,0,0,0,0,0,0
0.012899819,-3.40173855,-3.414720977,1.694419365,1.713810398,-3.408229763,0,0,0,0,0,0
0.016115156,-3.397270533,-3.413458793,1.690577688,1.714786975,-3.405364663,0,0,0,0,0,0
0.021214326,-3.424073654,-3.445337777,1.701429664,1.733276051,-3.434705715,0,0,0,0,0,0
0.028087497,-3.422305064,-3.450479948,1.697108783,1.739283722,-3.436392506,0,0,0,0,0,0
0.042723794,-3.436631023,-3.479462064,1.696953615,1.761092929,-3.458046543,0,0,0,0,0,0
0.054638541,-3.477062603,-3.531764313,1.711212031,1.793201427,-3.504413458,0,0,0,0,0,0
0.004529875,-3.496539915,-3.50113838,1.74600502,1.752834128,-3.498839148,0,0,0,0,0,0
-0.058040548,-3.467502145,-3.409566501,1.762771347,1.675762976,-3.438534323,0,0,0,0,0,0
-0.041599823,-3.446512643,-3.405002893,1.744056233,1.681701535,-3.425757768,0,0,0,0,0,0
-0.001469019,-3.441520331,-3.44012484,1.721494675,1.719327911,-3.440822585,0,0,0,0,0,0
0.037528597,-3.446993367,-3.484601367,1.704732385,1.761064982,-3.465797367,0,0,0,0,0,0
0.04781456,-3.459591366,-3.50748633,1.705888403,1.777650445,-3.483538848,0,0,0,0,0,0
0.046350577,-3.475169271,-3.5216086,1.714409347,1.783979589,-3.498388936,0,0,0,0,0,0
0.051670372,-3.500741982,-3.552492078,1.724535805,1.802081225,-3.52661703,0,0,0,0,0,0
0.041303333,-3.544573973,-3.585930579,1.75163532,1.813616956,-3.565252276,0,0,0,0,0,0
0.037946434,-3.559603687,-3.597625992,1.760828627,1.817786213,-3.578614839,0,0,0,0,0,0
0.024868737,-3.543344761,-3.568307255,1.759238012,1.796587996,-3.555826008,0,0,0,0,0,0
0.045617427,-3.538017705,-3.583705352,1.746200139,1.81466139,-3.560861529,0,0,0,0,0,0
0.070871413,-3.550702565,-3.621649003,1.739915576,1.846260208,-3.586175784,0,0,0,0,0,0
0.042540750646634734,-3.571269937,-3.61387385,1.764364593,1.828207301,-3.592571894,0,0,0,0,0,0
0.040827238444455044,-3.597861531,-3.63874351,1.778517146,1.839785374,-3.61830252,0,0,0,0,0,0
0.087196105,-3.61402237,-3.701292126,1.763413132,1.894244116,-3.657657248,0,0,0,0,0,0
0.074922325,-3.68867297,-3.763665886,1.806875322,1.919294106,-3.726169428,0,0,0,0,0,0
0.038545449063943485,-3.732886765,-3.771497214,1.847170658,1.905021331,-3.752191989,0,0,0,0,0,0
0.060734116,-3.694292186,-3.755097403,1.816779035,1.907915759,-3.724694794,0,0,0,0,0,0
0.061021683117926134,-3.693074144,-3.754194945,1.81602623,1.907608314,-3.723634544,0,0,0,0,0,0
0.063480755,-3.69745514,-3.761016517,1.816987193,1.912248636,-3.729235828,0,0,0,0,0,0
0.10070311820022808,-3.694560714,-3.79532486,1.796928798,1.948013989,-3.744942787,0,0,0,0,0,0
0.11472538180263821,-3.718683088,-3.833473541,1.801978853,1.974099462,-3.776078314,0,0,0,0,0,0
0.11595401779107414,-3.74654162,-3.862539987,1.815293801,1.989247002,-3.804540804,0,0,0,0,0,0
0.10320283623601932,-3.801957576,-3.905220979,1.84937737,2.004211908,-3.853589278,0,0,0,0,0,0
0.11081450930052233,-3.840257249,-3.95115903,1.86472137,2.03098677,-3.895708139,0,0,0,0,0,0
0.11957158605891893,-3.810175201,-3.929805301,1.845301808,2.024688444,-3.869990251,0,0,0,0,0,0
0.10061225034609773,-3.785934032,-3.886615649,1.842660891,1.99361395,-3.83627484,0,0,0,0,0,0
0.12362821703873719,-3.776848843,-3.90055566,1.826610313,2.012091938,-3.838702251,0,0,0,0,0,0
0.16461720232915766,-3.789927894,-3.954591564,1.812655346,2.059604383,-3.872259729,0,0,0,0,0,0
0.18729495401372112,-3.813237876,-4.000598455,1.812971461,2.093946704,-3.906918165,0,0,0,0,0,0
0.20456401534066218,-3.809228269,-4.013894403,1.802332127,2.109229209,-3.911561336,0,0,0,0,0,0
0.16356198634869876,-3.835476658,-3.999120933,1.835957336,2.081341459,-3.917298795,0,0,0,0,0,0
0.090685984,-3.881719257,-3.972455345,1.895516637,2.031570664,-3.927087301,0,0,0,0,0,0
0.1159529130947708,-3.888477921,-4.004510117,1.886262504,2.060231515,-3.946494019,0,0,0,0,0,0
0.16101577176783616,-3.854490215,-4.015597001,1.846737222,2.088306386,-3.935043608,0,0,0,0,0,0
0.19587093588439175,-3.821006871,-4.016944228,1.812567967,2.106407582,-3.918975549,0,0,0,0,0,0
0.23144175276714002,-3.813673673,-4.045177377,1.79111596,2.138309565,-3.929425525,0,0,0,0,0,0
0.19465870989605838,-3.81582904,-4.010544687,1.810585165,2.102601698,-3.913186863,0,0,0,0,0,0
0.17222613772685336,-3.833651708,-4.005964529,1.830712785,2.089095334,-3.919808119,0,0,0,0,0,0
0.20199420991439052,-3.852987028,-4.05504558,1.825496409,2.128519895,-3.954016304,0,0,0,0,0,0
0.20774059542013928,-3.896671305,-4.104465734,1.844465355,2.156103165,-4.000568519,0,0,0,0,0,0
0.19548555121367087,-3.89976878,-4.095322825,1.852141614,2.145404188,-3.997545803,0,0,0,0,0,0
0.15904312041534505,-3.825723269,-3.984845402,1.833340074,2.071944261,-3.905284335,0,0,0,0,0,0
0.16878127634220322,-3.787286495,-3.956140229,1.809252609,2.062460753,-3.871713362,0,0,0,0,0,0
0.22602962981321176,-3.814771941,-4.040841784,1.794371155,2.133435707,-3.927806862,0,0,0,0,0,0
0.21926146734161345,-3.833782092,-4.053125307,1.807260312,2.136193387,-3.943453699,0,0,0,0,0,0
0.1872161586756256,-3.848248945,-4.035581408,1.830516393,2.111398783,-3.941915176,0,0,0,0,0,0
0.17890632428247458,-3.866011611,-4.044981476,1.843552643,2.1119439,-3.955496544,0,0,0,0,0,0
0.1747831807323088,-3.880034074,-4.054897325,1.852625446,2.114840253,-3.967465699,0,0,0,0,0,0
0.20071543057989694,-3.892223881,-4.093042667,1.845754225,2.146879049,-3.992633274,0,0,0,0,0,0
0.22460767860511557,-3.867348068,-4.092029244,1.821370195,2.158318461,-3.979688656,0,0,0,0,0,0
0.21048488989002653,-3.83477265,-4.045359718,1.81214388,2.127922304,-3.940066184,0,0,0,0,0,0
0.20481589843467446,-3.818319026,-4.023244618,1.806751564,2.114030258,-3.920781822,0,0,0,0,0,0
0.2278290223146592,-3.836247196,-4.064147594,1.804209087,2.145988308,-3.950197395,0,0,0,0,0,0
0.2470905072622385,-3.848215137,-4.095377646,1.800562315,2.171234077,-3.971796392,0,0,0,0,0,0
0.22390222686361116,-3.840647236,-4.06462752,1.808372505,2.144264873,-3.952637378,0,0,0,0,0,0
0.20170472606014772,-3.84672729,-4.048497322,1.822511282,2.125101024,-3.947612306,0,0,0,0,0,0
0.1722163293904845,-3.878809275,-4.051085545,1.853296473,2.111650937,-3.96494741,0,0,0,0,0,0
0.20384107074201718,-3.878444108,-4.082364684,1.837301518,2.143102877,-3.980404396,0,0,0,0,0,0
0.23588262057007917,-3.849910227,-4.085869601,1.807013803,2.160876111,-3.967889914,0,0,0,0,0,0
0.17782536637092838,-3.842625583,-4.020528362,1.832400108,2.099176864,-3.931576972,0,0,0,0,0,0
0.1553274883356746,-3.832995753,-3.988383862,1.838834132,2.071855675,-3.910689808,0,0,0,0,0,0
0.17472668780279707,-3.81354388,-3.988351262,1.819408596,2.081538975,-3.900947571,0,0,0,0,0,0
0.17805211093434192,-3.828932389,-4.007091637,1.825440139,2.092571874,-3.918012013,0,0,0,0,0,0
0.16601601382501904,-3.850613109,-4.016717959,1.842298548,2.091366987,-3.933665534,0,0,0,0,0,0
0.1527715527533343,-3.885306124,-4.038134174,1.866267285,2.095452863,-3.961720149,0,0,0,0,0,0
0.15683062112208646,-3.906019454,-4.062911382,1.874594417,2.109871001,-3.984465418,0,0,0,0,0,0
0.17341320023516874,-3.859077965,-4.032546398,1.842832382,2.102979799,-3.945812181,0,0,0,0,0,0
0.20941892637449933,-3.817343956,-4.026838801,1.803962515,2.118128864,-3.922091378,0,0,0,0,0,0
0.2567935440260414,-3.817110994,-4.073990879,1.780158725,2.165392212,-3.945550937,0,0,0,0,0,0
0.27850248026885704,-3.817416574,-4.096010544,1.769457047,2.187256512,-3.956713559,0,0,0,0,0,0
0.25088454908389624,-3.815024018,-4.066044482,1.782069735,2.158464516,-3.94053425,0,0,0,0,0,0
0.21751445665395308,-3.826272884,-4.043905649,1.804379214,2.130710053,-3.935089267,0,0,0,0,0,0
0.19461837680770194,-3.877338834,-4.072041113,1.841360229,2.133329745,-3.974689974,0,0,0,0,0,0
0.16422293007015967,-3.902794107,-4.067059746,1.869285588,2.115641338,-3.984926926,0,0,0,0,0,0
0.18823765604527318,-3.870029096,-4.058323038,1.84089572,2.123280347,-3.964176067,0,0,0,0,0,0
0.2082951180653921,-3.845506842,-4.053905563,1.818605862,2.131100341,-3.949706203,0,0,0,0,0,0
0.1962329775482587,-3.831162051,-4.027496221,1.817464537,2.111864599,-3.929329136,0,0,0,0,0,0
0.19739733173886523,-3.81284632,-4.010345479,1.807724494,2.103871406,-3.9115959,0,0,0,0,0,0
0.21095780435852954,-3.799956962,-4.01099371,1.794499579,2.110975757,-3.905475336,0,0,0,0,0,0
0.1892995388213003,-3.81033092,-3.99970263,1.810515691,2.094501085,-3.905016775,0,0,0,0,0,0
0.16741004012633062,-3.858057743,-4.025572183,1.845323852,2.096491111,-3.941814963,0,0,0,0,0,0
0.15770400447303912,-3.887290487,-4.045077811,1.864793241,2.101390907,-3.966184149,0,0,0,0,0,0
0.15492651524636641,-3.859562431,-4.014570153,1.852317958,2.084748334,-3.937066292,0,0,0,0,0,0
0.18628440793048665,-3.818779862,-4.005155453,1.816247727,2.09571993,-3.911967657,0,0,0,0,0,0
0.2164237652251207,-3.812263288,-4.028779701,1.797919761,2.122601733,-3.920521495,0,0,0,0,0,0
0.23748560865137808,-3.817367005,-4.054903415,1.789940698,2.146194512,-3.93613521,0,0,0,0,0,0
0.22913793352967968,-3.808127614,-4.037323722,1.78949484,2.133230828,-3.922725668,0,0,0,0,0,0
0.21902908391930032,-3.807586014,-4.026741511,1.794278465,2.122885298,-3.917163763,0,0,0,0,0,0
0.21263067948674144,-3.857350372,-4.070091034,1.822359846,2.141360857,-3.963720703,0,0,0,0,0,0
0.16326601408949762,-3.917638453,-4.080974953,1.87718622,2.122120484,-3.999306703,0,0,0,0,0,0
0.15962037739475732,-3.913173362,-4.07288568,1.876776492,2.116253029,-3.993029521,0,0,0,0,0,0
0.18391947935495112,-3.857001067,-4.041010482,1.836540794,2.112464981,-3.949005775,0,0,0,0,0,0
0.1527103741391599,-3.80398996,-3.956807912,1.825639793,2.054759143,-3.880398936,0,0,0,0,0,0
0.15744128904520352,-3.804999923,-3.962540907,1.823779317,2.059991098,-3.883770415,0,0,0,0,0,0
0.17805349737668716,-3.830331149,-4.008459431,1.826138826,2.093256464,-3.91939529,0,0,0,0,0,0
0.17292720767039216,-3.834821969,-4.007812209,1.830947381,2.090369708,-3.921317089,0,0,0,0,0,0
0.1789862255997665,-3.840892261,-4.019936263,1.830953018,2.099461244,-3.930414262,0,0,0,0,0,0
0.18229148064234185,-3.878187268,-4.060596249,1.847947894,2.121443865,-3.969391758,0,0,0,0,0,0
0.17715194494284928,-3.90578265,-4.083055024,1.864315352,2.130103485,-3.994418837,0,0,0,0,0,0
0.18917528435334494,-3.871713461,-4.06096861,1.841269088,2.125071947,-3.966341035,0,0,0,0,0,0
0.20781137584120307,-3.830613977,-4.038468772,1.811401301,2.123140074,-3.934541374,0,0,0,0,0,0
0.22561663500515797,-3.826028281,-4.051735167,1.800205823,2.138675901,-3.938881724,0,0,0,0,0,0
0.22319760325048668,-3.841912217,-4.065227312,1.809357307,2.144212458,-3.953569765,0,0,0,0,0,0
0.22496877578925034,-3.841195433,-4.066225024,1.808113328,2.1455969,-3.953710228,0,0,0,0,0,0
0.22151488199925765,-3.816593929,-4.038175504,1.797539523,2.129845193,-3.927384716,0,0,0,0,0,0
0.15943359920498135,-3.853008709,-4.012507134,1.846787555,2.085970367,-3.932757921,0,0,0,0,0,0
0.1562484467560194,-3.907721543,-4.064019287,1.875736548,2.110133867,-3.985870415,0,0,0,0,0,0
0.1811216106090778,-3.89575642,-4.076940792,1.857317405,2.129031201,-3.986348606,0,0,0,0,0,0
0.20948763917338037,-3.849426017,-4.058985256,1.819969189,2.134236448,-3.954205636,0,0,0,0,0,0
0.2576153647869456,-3.822614361,-4.080308251,1.782499498,2.168961808,-3.951461306,0,0,0,0,0,0
0.22828075279811993,-3.836262768,-4.064625775,1.803991008,2.146453264,-3.950444272,0,0,0,0,0,0
0.19323960869490803,-3.842509719,-4.035848111,1.824635055,2.11454386,-3.939178915,0,0,0,0,0,0
0.21340151880505803,-3.832830057,-4.046332342,1.809714269,2.12986693,-3.939581199,0,0,0,0,0,0
0.19504064847486668,-3.849953193,-4.045070079,1.827456272,2.120055364,-3.947511636,0,0,0,0,0,0
0.17108165050441881,-3.88324315,-4.054357505,1.85608075,2.112719578,-3.968800328,0,0,0,0,0,0
0.20109403820861918,-3.883440196,-4.084573108,1.841173079,2.142833573,-3.984006652,0,0,0,0,0,0
0.22352338712994582,-3.853115445,-4.0767168,1.814796029,2.150120094,-3.964916122,0,0,0,0,0,0
0.20176102296120757,-3.819795772,-4.021628013,1.809017374,2.111694518,-3.920711892,0,0,0,0,0,0
0.14943709712972747,-3.839779453,-3.989288444,1.845171178,2.069362771,-3.914533948,0,0,0,0,0,0
0.1538014814433196,-3.854795741,-4.008696224,1.85049713,2.081248853,-3.931745982,0,0,0,0,0,0
0.18192831056011954,-3.813342682,-3.995367978,1.815707186,2.088648144,-3.90435533,0,0,0,0,0,0
0.16046877486442895,-3.825544392,-3.98608703,1.832537808,2.073277902,-3.905815711,0,0,0,0,0,0
0.14225783592453975,-3.894696325,-4.037024087,1.876219244,2.089640961,-3.965860206,0,0,0,0,0,0
0.16412693761279637,-3.942784039,-4.106965671,1.889328551,2.135546304,-4.024874855,0,0,0,0,0,0
0.17831405763579178,-3.880702987,-4.059079343,1.851194464,2.1186967,-3.969891165,0,0,0,0,0,0
0.20026172732082892,-3.832077417,-4.032447492,1.815907845,2.11635461,-3.932262454,0,0,0,0,0,0
0.2245280258055879,-3.854938415,-4.0795494,1.815205194,2.152038713,-3.967243908,0,0,0,0,0,0
0.1888822201908874,-3.862176956,-4.051139397,1.836647368,2.120010809,-3.956658176,0,0,0,0,0,0
0.20135184444757723,-3.840991231,-4.042404348,1.819819693,2.121878096,-3.941697789,0,0,0,0,0,0
0.21162095288054183,-3.848517057,-4.060173327,1.818448052,2.13589714,-3.954345192,0,0,0,0,0,0
0.1583869834348698,-3.879674762,-4.038113663,1.860643889,2.098250323,-3.958894213,0,0,0,0,0,0
0.1599354600669664,-3.900848379,-4.060862285,1.87045646,2.110398873,-3.980855332,0,0,0,0,0,0
0.1893180006286116,-3.89366257,-4.083061221,1.852172285,2.136189611,-3.988361896,0,0,0,0,0,0
0.2143696730522188,-3.843384629,-4.057813798,1.814507478,2.136091736,-3.950599213,0,0,0,0,0,0
0.20904702792798405,-3.835985423,-4.045107597,1.813469197,2.127077312,-3.94054651,0,0,0,0,0,0
0.16712516869660454,-3.84737843,-4.014581602,1.840126631,2.090853386,-3.930980016,0,0,0,0,0,0
0.19032470367783977,-3.834343528,-4.024749453,1.822009412,2.107537079,-3.929546491,0,0,0,0,0,0
0.22380849910727696,-3.863519057,-4.087402149,1.819855279,2.155605324,-3.975460603,0,0,0,0,0,0
0.20304362130029352,-3.880080748,-4.083211997,1.838518563,2.143127809,-3.981646373,0,0,0,0,0,0
0.17275525140510434,-3.914828881,-4.087670652,1.871036815,2.130212952,-4.001249767,0,0,0,0,0,0
0.15802247829738936,-3.91912761,-4.077218784,1.880552566,2.117620631,-3.998173197,0,0,0,0,0,0
0.16404969619361517,-3.850576909,-4.014705911,1.843263606,2.089377804,-3.93264141,0,0,0,0,0,0
0.18652156505424033,-3.819014446,-4.005616781,1.816246441,2.096069173,-3.912315613,0,0,0,0,0,0
0.19237877747069812,-3.832932083,-4.025373776,1.820276653,2.108876277,-3.92915293,0,0,0,0,0,0
0.2177415595097635,-3.837918274,-4.055699539,1.810088357,2.136720549,-3.946808906,0,0,0,0,0,0
0.2579936843229637,-3.837482459,-4.095565107,1.789744387,2.176779396,-3.966523783,0,0,0,0,0,0
0.26847857088617977,-3.852508212,-4.12110139,1.79201482,2.19478998,-3.986804801,0,0,0,0,0,0
0.21770851506592487,-3.87704632,-4.094833799,1.829668902,2.156271157,-3.985940059,0,0,0,0,0,0
0.16594181925947155,-3.911168703,-4.077193267,1.872613442,2.121567543,-3.994180985,0,0,0,0,0,0
0.1813925518160912,-3.911722405,-4.093186473,1.865164926,2.137289512,-4.002454439,0,0,0,0,0,0
0.21413257029095126,-3.897051501,-4.111226588,1.841459465,2.162679579,-4.004139044,0,0,0,0,0,0
0.20750654539729924,-3.872448895,-4.080020739,1.832471175,2.143763642,-3.976234817,0,0,0,0,0,0
0.1723880892349928,-3.844269694,-4.016748554,1.835940802,2.094568322,-3.930509124,0,0,0,0,0,0
0.19054870294970241,-3.846115312,-4.036749445,1.827783305,2.113649074,-3.941432379,0,0,0,0,0,0
0.23625952590373894,-3.85170073,-4.088070065,1.807720602,2.162164795,-3.969885397,0,0,0,0,0,0
0.21389126263746108,-3.873777794,-4.087777806,1.829943266,2.150834535,-3.9807778,0,0,0,0,0,0
0.15746008055336808,-3.901325725,-4.058872593,1.871932822,2.108166337,-3.980099159,0,0,0,0,0,0
0.15445529501814725,-3.897640031,-4.052165689,1.871592368,2.103310492,-3.97490286,0,0,0,0,0,0
0.2086162863771157,-3.881701098,-4.09037782,1.836542406,2.149497053,-3.986039459,0,0,0,0,0,0
0.2464496215968566,-3.852239078,-4.098766272,1.802894728,2.172607947,-3.975502675,0,0,0,0,0,0
0.2511554407050293,-3.83942044,-4.090644436,1.7941325,2.170899938,-3.965032438,0,0,0,0,0,0
0.24319195819543774,-3.836171924,-4.079420351,1.796489983,2.161306154,-3.957796138,0,0,0,0,0,0
0.20807715743210922,-3.837357917,-4.045513722,1.81464038,2.12679544,-3.94143582,0,0,0,0,0,0
0.16752683240893976,-3.861615204,-4.02920435,1.847044186,2.098365591,-3.945409777,0,0,0,0,0,0
0.16121930935085246,-3.918810515,-4.080093881,1.878795603,2.120656595,-3.999452198,0,0,0,0,0,0
0.17717367212769905,-3.933264293,-4.110492716,1.87804531,2.143833194,-4.021878505,0,0,0,0,0,0
0.18844808866881763,-3.872474811,-4.060998365,1.842013361,2.124723227,-3.966736588,0,0,0,0,0,0
0.19801174574289493,-3.839848899,-4.037965646,1.820918576,2.117988696,-3.938907273,0,0,0,0,0,0
0.21355755940885318,-3.844566722,-4.058189099,1.815504581,2.135873329,-3.95137791,0,0,0,0,0,0
0.2012037390095525,-3.8551985,-4.056472605,1.826997381,2.128838172,-3.955835553,0,0,0,0,0,0
0.19466225870889034,-3.888322177,-4.083047244,1.846829959,2.138854751,-3.98568471,0,0,0,0,0,0
0.20563572495023846,-3.88659628,-4.092314688,1.840480278,2.148975206,-3.989455484,0,0,0,0,0,0
0.18718070384008673,-3.898809172,-4.086105161,1.855814234,2.136642932,-3.992457167,0,0,0,0,0,0
0.16951736651966667,-3.92486015,-4.094472873,1.877671392,2.13199512,-4.009666511,0,0,0,0,0,0
0.18225275588306658,-3.894505349,-4.076831649,1.856126296,2.129542202,-3.985668499,0,0,0,0,0,0
0.19256631329682206,-3.875330135,-4.06792933,1.841381911,2.130247822,-3.971629733,0,0,0,0,0,0
0.20219392152643328,-3.853480428,-4.055709442,1.825643253,2.128951682,-3.954594935,0,0,0,0,0,0
0.2152045039081993,-3.844034377,-4.059285726,1.814414936,2.137245115,-3.951660051,0,0,0,0,0,0
0.22349440303637408,-3.875291077,-4.098835415,1.825898337,2.161164909,-3.987063246,0,0,0,0,0,0
0.23248539301289123,-3.872120669,-4.104680251,1.819817638,2.168582822,-3.98840046,0,0,0,0,0,0
0.22544029740603094,-3.889388811,-4.114900751,1.831974257,2.170170524,-4.002144781,0,0,0,0,0,0
0.20893369957436406,-3.917374818,-4.126379622,1.854220559,2.167656661,-4.02187722,0,0,0,0,0,0
0.2149195168844549,-3.886386346,-4.101375528,1.835733415,2.158147522,-3.993880937,0,0,0,0,0,0
0.19248613366081518,-3.866294091,-4.058843116,1.836903979,2.125664625,-3.962568604,0,0,0,0,0,0
0.17945381045132366,-3.873530713,-4.053032745,1.847038451,2.116243278,-3.963281729,0,0,0,0,0,0
0.20725444642403792,-3.860408852,-4.067700123,1.826577203,2.137477285,-3.964054488,0,0,0,0,0,0
0.209171403,-3.855854714,-4.065101907,1.823341655,2.137136655,-3.960478311,0,0,0,0,0,0
0.19641902401636518,-3.869527454,-4.066067433,1.836554215,2.131243228,-3.967797443,0,0,0,0,0,0
0.1823247270402297,-3.879813952,-4.062226677,1.848744613,2.122275702,-3.971020314,0,0,0,0,0,0
0.18904015271849284,-3.919323353,-4.108434496,1.8651416,2.148737325,-4.013878925,0,0,0,0,0,0
0.21176460905762168,-3.923473986,-4.135325392,1.855854688,2.173545001,-4.029399689,0,0,0,0,0,0
0.21101785755787503,-3.886895508,-4.097996135,1.837938825,2.154506996,-3.992445821,0,0,0,0,0,0
0.2379754565076788,-3.875467477,-4.11351361,1.81874601,2.175744533,-3.994490544,0,0,0,0,0,0
0.264643604,-3.863685438,-4.128364417,1.799520917,2.196504011,-3.996024928,0,0,0,0,0,0
0.22751937034441821,-3.860774217,-4.088358785,1.816627423,2.157939078,-3.974566501,0,0,0,0,0,0
0.21680456234525255,-3.85346939,-4.070353158,1.818332414,2.14357886,-3.961911274,0,0,0,0,0,0
0.18678235038001448,-3.860894067,-4.047733929,1.837055858,2.11725814,-3.954313998,0,0,0,0,0,0
0.13534567152375182,-3.921871024,-4.057288304,1.893262676,2.096316988,-3.989579664,0,0,0,0,0,0
0.14391227094130407,-3.96677042,-4.110755872,1.911429075,2.127334072,-4.038763146,0,0,0,0,0,0
0.16824078273348683,-3.921846071,-4.090165209,1.876802644,2.129202996,-4.00600564,0,0,0,0,0,0
0.2007151423366339,-3.880616057,-4.081433304,1.839950457,2.141074223,-3.981024681,0,0,0,0,0,0
0.22374117677262567,-3.868553978,-4.092402314,1.822406401,2.158071746,-3.980478146,0,0,0,0,0,0
0.20247112942158857,-3.85141511,-4.053977497,1.824471991,2.128224313,-3.952696304,0,0,0,0,0,0
0.2070787417865013,-3.855720696,-4.062863775,1.824320977,2.134971258,-3.959292235,0,0,0,0,0,0
0.20814023611165608,-3.862225142,-4.070442781,1.827042453,2.139291509,-3.966333962,0,0,0,0,0,0
0.1877402229679613,-3.873240978,-4.061072885,1.842750377,2.124406554,-3.967156931,0,0,0,0,0,0
0.17625370554806194,-3.931502867,-4.107828361,1.877624581,2.142041033,-4.019665614,0,0,0,0,0,0
0.13673910340093648,-3.946019268,-4.08282781,1.904640082,2.109783456,-4.014423539,0,0,0,0,0,0
0.1609469682394529,-3.885931776,-4.046969124,1.862492404,2.103958046,-3.96645045,0,0,0,0,0,0
0.2299939899797559,-3.861275314,-4.091360359,1.815640662,2.160677175,-3.976317837,0,0,0,0,0,0
0.2222382579904012,-3.868897655,-4.09122433,1.823329698,2.156731294,-3.980060992,0,0,0,0,0,0
0.1935283508503238,-3.863363833,-4.056979654,1.834917741,2.125254002,-3.960171743,0,0,0,0,0,0
0.18813143955035938,-3.863013927,-4.051226577,1.837441244,2.119679008,-3.957120252,0,0,0,0,0,0
0.1935989136194099,-3.89275235,-4.086432286,1.849576718,2.1400156,-3.989592318,0,0,0,0,0,0
0.20336952442319992,-3.92421621,-4.127656732,1.860423343,2.165513128,-4.025936471,0,0,0,0,0,0
0.20000021081503525,-3.944573235,-4.144652402,1.872286512,2.172326306,-4.044612819,0,0,0,0,0,0
0.19761775728667258,-3.91560355,-4.113285451,1.858992896,2.155451604,-4.014444501,0,0,0,0,0,0
0.1994383268030646,-3.87021068,-4.069698508,1.835386177,2.134568418,-3.969954594,0,0,0,0,0,0
0.19702972374552555,-3.872353969,-4.069459096,1.837662123,2.13324441,-3.970906533,0,0,0,0,0,0
0.21625975391738134,-3.855884251,-4.072241203,1.819812249,2.144250478,-3.964062727,0,0,0,0,0,0
0.2071337261356596,-3.855620958,-4.062821196,1.824243616,2.134977461,-3.959221077,0,0,0,0,0,0
0.17310729270355305,-3.879973884,-4.05314203,1.853433295,2.113124662,-3.966557957,0,0,0,0,0,0
0.15810392127352185,-3.91846014,-4.07664007,1.880178109,2.117371996,-3.997550105,0,0,0,0,0,0
0.16446031646153042,-3.936609895,-4.101164102,1.886074789,2.132812209,-4.018886999,0,0,0,0,0,0
0.18035000034357518,-3.883539867,-4.063985814,1.851594933,2.122167907,-3.97376284,0,0,0,0,0,0
0.18527636794054592,-3.84477711,-4.030105978,1.829750371,2.107691173,-3.937441544,0,0,0,0,0,0
0.1874323362890087,-3.860305872,-4.047813413,1.836436768,2.117622874,-3.954059642,0,0,0,0,0,0
0.20485181814512526,-3.884795791,-4.089770191,1.839971986,2.147311005,-3.987282991,0,0,0,0,0,0
0.20579859282287702,-3.890027783,-4.095916298,1.842114595,2.150857445,-3.992972041,0,0,0,0,0,0
0.19362334537835302,-3.899115774,-4.092805379,1.852746214,2.143214362,-3.995960577,0,0,0,0,0,0
0.15745776687913512,-3.928451685,-4.085979914,1.885496959,2.12171884,-4.007215799,0,0,0,0,0,0
0.13400076346364664,-3.962855702,-4.09692291,1.914427469,2.115461837,-4.029889306,0,0,0,0,0,0
0.1467078408000106,-3.927065089,-4.073857115,1.890178624,2.110282478,-4.000461102,0,0,0,0,0,0
0.14551292334056978,-3.880459091,-4.026062161,1.867473084,2.085787542,-3.953260626,0,0,0,0,0,0
0.16127230799525968,-3.875439027,-4.036777988,1.857083359,2.099025148,-3.956108507,0,0,0,0,0,0
0.19193754260631082,-3.866316969,-4.058321148,1.837189713,2.125129345,-3.962319059,0,0,0,0,0,0
0.1761904087978676,-3.882866076,-4.059100918,1.853337834,2.117645663,-3.970983497,0,0,0,0,0,0
0.186430347,-3.908051173,-4.094567431,1.860810413,2.140498889,-4.001309302,0,0,0,0,0,0
0.1694304938867064,-3.941977078,-4.111519621,1.886273292,2.140475057,-4.026748349,0,0,0,0,0,0
0.094231889,-3.989045952,-4.083353052,1.947407032,2.08879247,-4.036199502,0,0,0,0,0,0
0.083948772,-3.992978663,-4.077012955,1.954514946,2.080480864,-4.034995809,0,0,0,0,0,0
0.13055265384951004,-3.957931947,-4.088561272,1.913689647,2.109556963,-4.02324661,0,0,0,0,0,0
0.15458110847568704,-3.933664495,-4.088304016,1.889541693,2.121442562,-4.010984256,0,0,0,0,0,0
0.089420691,-3.929272211,-4.018742914,1.91992576,2.054081803,-3.974007563,0,0,0,0,0,0
0.058760099629524894,-3.923573278,-3.982403724,1.932406589,2.020581912,-3.952988501,0,0,0,0,0,0
0.097546425,-3.926682315,-4.024326506,1.914567945,2.060936466,-3.975504411,0,0,0,0,0,0
0.10799295965559737,-3.940314467,-4.048367631,1.916160754,2.078180295,-3.994341049,0,0,0,0,0,0
0.093313086,-3.966529119,-4.059944026,1.936608017,2.076628556,-4.013236573,0,0,0,0,0,0
0.055156379,-3.985544318,-4.040818526,1.965193969,2.047987453,-4.013181422,0,0,0,0,0,0
0.038843226,-3.967563923,-4.006480655,1.964360349,2.02266194,-3.987022289,0,0,0,0,0,0
0.047046117,-3.941320803,-3.988411778,1.947137343,2.017728948,-3.964866291,0,0,0,0,0,0
0.062040058,-3.896238356,-3.958334214,1.917099149,2.010187136,-3.927286285,0,0,0,0,0,0
0.063835676,-3.88492892,-3.948838561,1.910546622,2.006337118,-3.91688374,0,0,0,0,0,0
0.067731785,-3.913638021,-3.981447254,1.922953118,2.024589519,-3.947542637,0,0,0,0,0,0
0.067038767,-3.951573824,-4.018711887,1.942267528,2.042875327,-3.985142856,0,0,0,0,0,0
0.038057175740760146,-3.994655398,-4.032793352,1.978299111,2.035425264,-4.013724375,0,0,0,0,0,0
0.022527386927650845,-4.033950603,-4.056546981,2.005711608,2.039537184,-4.045248792,0,0,0,0,0,0
0.024421381502662178,-4.021112345,-4.045627476,1.998345482,2.035024429,-4.033369911,0,0,0,0,0,0
0.057693285,-3.982523202,-4.040349332,1.962414959,2.049021308,-4.011436267,0,0,0,0,0,0
0.082522124,-3.941995737,-4.024603956,1.929736806,2.05356304,-3.983299846,0,0,0,0,0,0
0.073820158,-3.918269898,-3.992133304,1.92222487,2.032976731,-3.955201601,0,0,0,0,0,0
0.068896645,-3.906737902,-3.9757093,1.918920628,2.022302973,-3.941223601,0,0,0,0,0,0
0.054397922,-3.918062402,-3.972572737,1.93183224,2.013485329,-3.945317569,0,0,0,0,0,0
0.05169339,-3.935239903,-3.987021368,1.941773256,2.019357379,-3.961130636,0,0,0,0,0,0
0.055397199403652043,-3.968617357,-4.024061087,1.956610079,2.039729143,-3.996339222,0,0,0,0,0,0
0.047004321,-3.978651032,-4.025720295,1.965823355,2.036362308,-4.002185663,0,0,0,0,0,0
0.086455378,-3.913810601,-4.000337676,1.913677611,2.043396527,-3.957074138,0,0,0,0,0,0
0.11794294764227921,-3.896236704,-4.014258423,1.889146878,2.066100685,-3.955247564,0,0,0,0,0,0
0.089146486,-3.91672794,-4.005953453,1.913790727,2.047549969,-3.961340696,0,0,0,0,0,0
0.10843052236597513,-3.897072667,-4.005575452,1.894321072,2.057002987,-3.951324059,0,0,0,0,0,0
0.1468347336392491,-3.886339205,-4.033256113,1.869752236,2.090045423,-3.959797659,0,0,0,0,0,0
0.1306700243925959,-3.892185709,-4.022928606,1.880757842,2.076799315,-3.957557158,0,0,0,0,0,0
0.12946673719471963,-3.921535747,-4.051065028,1.896034505,2.090265883,-3.986300388,0,0,0,0,0,0
0.14072000817769492,-3.960441345,-4.101274037,1.909860668,2.120997023,-4.030857691,0,0,0,0,0,0
0.15059146510985308,-3.909995899,-4.060692095,1.879702217,2.10564178,-3.985343997,0,0,0,0,0,0
0.19899541041915805,-3.876711055,-4.075771648,1.838857822,2.137383529,-3.976241352,0,0,0,0,0,0
0.22159607570335593,-3.881373397,-4.103035242,1.82988866,2.162315659,-3.99220432,0,0,0,0,0,0
0.17979502737619418,-3.872534982,-4.052388631,1.846369977,2.116091829,-3.962461806,0,0,0,0,0,0
0.1438951793779289,-3.881686967,-4.025642703,1.868895894,2.084768941,-3.953664835,0,0,0,0,0,0
0.15419001357335219,-3.89177269,-4.046051727,1.868791338,2.10012087,-3.968912209,0,0,0,0,0,0
0.153174937,-3.92138902,-4.07465779,1.884107042,2.113916363,-3.998023405,0,0,0,0,0,0
0.11774014945349225,-3.96133932,-4.07916336,1.921799585,2.098451755,-4.02025134,0,0,0,0,0,0
0.1448228089925254,-3.939572373,-4.084462348,1.897374782,2.114642578,-4.01201736,0,0,0,0,0,0
0.15513965693807585,-3.904778352,-4.060004511,1.874819347,2.107572084,-3.982391431,0,0,0,0,0,0
0.13354128682243824,-3.918831165,-4.052465774,1.892644939,2.093003531,-3.98564847,0,0,0,0,0,0
0.1603713359459933,-3.916530487,-4.076963641,1.878079575,2.118667489,-3.996747064,0,0,0,0,0,0
0.174500804,-3.894910493,-4.069468039,1.860204845,2.121984421,-3.982189266,0,0,0,0,0,0
0.18219029221868605,-3.89076949,-4.073029868,1.854289599,2.12761008,-3.981899679,0,0,0,0,0,0
0.2074419015520073,-3.898496477,-4.106045294,1.845527288,2.156743598,-4.002270886,0,0,0,0,0,0
0.20490184764579375,-3.917845262,-4.122865693,1.856471707,2.16388377,-4.020355478,0,0,0,0,0,0
0.2096252163539668,-3.926711151,-4.136440443,1.858542967,2.17303283,-4.031575797,0,0,0,0,0,0
0.2341078185039337,-3.890807102,-4.125008411,1.828349642,2.179558115,-4.007907756,0,0,0,0,0,0
0.21705952734257744,-3.845221565,-4.062332394,1.814081019,2.139695961,-3.95377698,0,0,0,0,0,0
0.1878357823476903,-3.876372961,-4.064283142,1.844268589,2.126059462,-3.970328051,0,0,0,0,0,0
0.15953435599203583,-3.921935751,-4.081514803,1.881200698,2.12052458,-4.001725277,0,0,0,0,0,0
0.16111231572668933,-3.918426125,-4.079576174,1.878656905,2.120344245,-3.999001149,0,0,0,0,0,0
0.15851336578722477,-3.907583997,-4.06623478,1.874535316,2.112374073,-3.986909389,0,0,0,0,0,0
0.15256999112807035,-3.936009024,-4.088730934,1.891719517,2.120650463,-4.012369979,0,0,0,0,0,0
0.16453813918699892,-3.957502939,-4.12212932,1.8964824,2.14333373,-4.03981613,0,0,0,0,0,0
0.1795933885006808,-3.918367733,-4.098036292,1.869387172,2.13881484,-4.008202012,0,0,0,0,0,0
0.1908202936857615,-3.888685903,-4.07959344,1.848932805,2.135206867,-3.984139672,0,0,0,0,0,0
0.21256339116394332,-3.889414706,-4.102026642,1.838425657,2.157295016,-3.995720674,0,0,0,0,0,0
0.24324905181505932,-3.888692559,-4.131961627,1.822721754,2.187605339,-4.010327093,0,0,0,0,0,0
0.2587815774427969,-3.879662878,-4.138519607,1.81044065,2.198650592,-4.009091242,0,0,0,0,0,0
0.22995098437174763,-3.88136642,-4.11140794,1.825707718,2.170679462,-3.99638718,0,0,0,0,0,0
0.18386967096086815,-3.9338072,-4.117746737,1.874968765,2.150808204,-4.025776969,0,0,0,0,0,0
0.11573229004918262,-4.005416561,-4.121235299,1.944842136,2.118483795,-4.06332593,0,0,0,0,0,0
0.12382605632352181,-4.003037699,-4.126939707,1.939605821,2.125382882,-4.064988703,0,0,0,0,0,0
0.1691112657987882,-3.965659242,-4.134831282,1.898273988,2.151971274,-4.050245262,0,0,0,0,0,0
0.1836421216796133,-3.955653654,-4.139329647,1.886005766,2.161485884,-4.04749165,0,0,0,0,0,0
0.17793294594433254,-3.962868325,-4.140858371,1.89246769,2.159395659,-4.051863348,0,0,0,0,0,0
0.13479523408661778,-3.960756598,-4.095623521,1.912980682,2.115209377,-4.028190059,0,0,0,0,0,0
0.1116255445996415,-3.944650171,-4.056369757,1.916512313,2.083997651,-4.000509964,0,0,0,0,0,0
0.13097484462819542,-3.908568205,-4.039617814,1.88879668,2.085296329,-3.97409301,0,0,0,0,0,0
0.1326492491521959,-3.864585935,-3.997260422,1.865968343,2.064954836,-3.930923179,0,0,0,0,0,0
0.13475080192994465,-3.787415684,-3.922253981,1.826332441,2.028502391,-3.854834832,0,0,0,0,0,0
0.13299094501088332,-3.669487572,-3.802558533,1.768248313,1.967774739,-3.736023053,0,0,0,0,0,0
0.095285954,-3.612055191,-3.707391035,1.758384618,1.901338495,-3.659723113,0,0,0,0,0,0
-0.010782358,-3.601108811,-3.590402796,1.805945584,1.789810219,-3.595755804,0,0,0,0,0,0
-0.178387059,-3.639242595,-3.460922715,1.908814827,1.641267828,-3.550082655,0,0,0,0,0,0
-0.345798612,-3.720613544,-3.374850231,2.033206078,1.51452581,-3.547731888,0,0,0,0,0,0
-0.545621477,-3.77726423,-3.231691028,2.161442854,1.343034775,-3.504477629,0,0,0,0,0,0
-0.795585972,-3.899737008,-3.104224567,2.34766149,1.154319298,-3.501980788,0,0,0,0,0,0
-1.016173045,-4.008574496,-2.992484224,2.51237377,0.98815559,-3.50052936,0,0,0,0,0,0
-1.046956226,-3.903275968,-2.856385905,2.475116097,0.904714839,-3.379830936,0,0,0,0,0,0
-0.952190969,-3.723662616,-2.771538917,2.337926793,0.909673974,-3.247600767,0,0,0,0,0,0
-0.828805421,-3.617416119,-2.788695601,2.22311077,0.97994509,-3.20305586,0,0,0,0,0,0
-0.66363666,-3.55508473,-2.891529073,2.109360695,1.113946207,-3.223306901,0,0,0,0,0,0
-0.455631503,-3.508501262,-3.052929081,1.982066382,1.298648789,-3.280715171,0,0,0,0,0,0
-0.240477497,-3.437549175,-3.197123249,1.839013336,1.478322876,-3.317336212,0,0,0,0,0,0
-0.085806376,-3.408252397,-3.322505293,1.747029386,1.618349458,-3.365378845,0,0,0,0,0,0
0.013337696374553837,-3.463569898,-3.476978951,1.725116101,1.745158323,-3.470274424,0,0,0,0,0,0
0.12031852445267606,-3.531750073,-3.652135856,1.705715774,1.88622719,-3.591942964,0,0,0,0,0,0
0.2564337514685878,-3.629660919,-3.886152124,1.686613584,2.071292938,-3.757906522,0,0,0,0,0,0
0.3767586943265995,-3.724110874,-4.100898894,1.67367609,2.238828794,-3.912504884,0,0,0,0,0,0
0.4941309560940628,-3.789094033,-4.283296285,1.647481539,2.38871362,-4.036195159,0,0,0,0,0,0
0.5719954123735606,-3.870688568,-4.442753686,1.649346578,2.507374549,-4.156721127,0,0,0,0,0,0
0.5589940634754181,-3.900094885,-4.459158609,1.670550411,2.509076336,-4.179626747,0,0,0,0,0,0
0.5405844789902632,-3.917988235,-4.458656914,1.688701878,2.499620697,-4.188322575,0,0,0,0,0,0
0.5376084552538637,-3.982845947,-4.520509603,1.722618746,2.529059029,-4.251677775,0,0,0,0,0,0
0.5358607532393501,-4.025764403,-4.561668434,1.744951825,2.548764593,-4.293716418,0,0,0,0,0,0
0.5214227310126118,-4.008141389,-4.529622404,1.743359329,2.525522567,-4.268881896,0,0,0,0,0,0
0.4942065565692339,-3.990672303,-4.484940592,1.748232873,2.489573574,-4.237806448,0,0,0,0,0,0
0.46414711859557617,-3.975241545,-4.439457234,1.755547213,2.451802176,-4.20734939,0,0,0,0,0,0
0.4270163650532433,-3.932472284,-4.359548507,1.752727959,2.393282436,-4.146010395,0,0,0,0,0,0
0.39653286114375325,-3.920409642,-4.317017073,1.761938391,2.356774967,-4.118713357,0,0,0,0,0,0
0.3672531993319198,-3.931094581,-4.298440373,1.781920691,2.332846786,-4.114767477,0,0,0,0,0,0
0.29757550266381905,-3.917461995,-4.215106377,1.809943246,2.25634094,-4.066284186,0,0,0,0,0,0
0.22701472258647634,-3.923224548,-4.150335542,1.848104913,2.188675132,-4.036780045,0,0,0,0,0,0
0.19966129825172851,-3.900762198,-4.100512783,1.85055045,2.15008704,-4.00063749,0,0,0,0,0,0
0.1988277107919412,-3.856827788,-4.055746948,1.829000039,2.127287329,-3.956287368,0,0,0,0,0,0
0.18827791929262044,-3.852224611,-4.040608712,1.831973346,2.114443316,-3.946416661,0,0,0,0,0,0
0.17409360513059277,-3.851863387,-4.026020728,1.838884891,2.100057167,-3.938942058,0,0,0,0,0,0
0.18439949029312208,-3.850917496,-4.035413927,1.833259003,2.109906709,-3.943165712,0,0,0,0,0,0
0.20368069181778628,-3.854241621,-4.058056763,1.825280465,2.130868728,-3.956149192,0,0,0,0,0,0
0.19621435156559955,-3.878354157,-4.074656475,1.841069902,2.135435413,-3.976505316,0,0,0,0,0,0
0.16986722068305407,-3.916209453,-4.086145234,1.873171116,2.128006227,-4.001177343,0,0,0,0,0,0
0.15899921882551582,-3.895427488,-4.054505088,1.868214135,2.106752153,-3.974966288,0,0,0,0,0,0
0.17031612421944908,-3.866553571,-4.036965814,1.848118724,2.103640969,-3.951759693,0,0,0,0,0,0
0.19873228430586087,-3.841439075,-4.040266141,1.821353395,2.119499213,-3.940852608,0,0,0,0,0,0
0.22050858756671152,-3.84353442,-4.064090569,1.811512916,2.142299578,-3.953812494,0,0,0,0,0,0
0.20533824931343503,-3.847690959,-4.053063625,1.821176355,2.129200937,-3.950377292,0,0,0,0,0,0
0.18446119929994473,-3.845520316,-4.030061403,1.830529558,2.107261301,-3.93779086,0,0,0,0,0,0
0.18853702171499417,-3.880515339,-4.069127233,1.845989159,2.128832127,-3.974821286,0,0,0,0,0,0
0.15347580699736096,-3.939184928,-4.092737255,1.89285456,2.123106531,-4.015961092,0,0,0,0,0,0
0.083902748,-3.929701213,-4.01366864,1.922899233,2.048785694,-3.971684927,0,0,0,0,0,0
0.088532572,-3.898296189,-3.986881394,1.904881809,2.037706983,-3.942588791,0,0,0,0,0,0
0.13020046850223452,-3.875151942,-4.005441868,1.872475737,2.067821168,-3.940296905,0,0,0,0,0,0
0.1319563002837735,-3.84879637,-3.98085363,1.858420035,2.056404965,-3.914825,0,0,0,0,0,0
0.17409513242564478,-3.85010515,-4.024284078,1.838005009,2.099189605,-3.937194614,0,0,0,0,0,0
0.19366512416860449,-3.863776553,-4.057523333,1.835055714,2.125594228,-3.960649943,0,0,0,0,0,0
0.17346755095989078,-3.878294627,-4.051810412,1.852413538,2.112638981,-3.965052519,0,0,0,0,0,0
0.135230591,-3.914311218,-4.049601776,1.889540313,2.092416184,-3.981956497,0,0,0,0,0,0
0.096064655,-3.919769047,-4.015913646,1.911852196,2.05598915,-3.967841346,0,0,0,0,0,0
0.1294349143190087,-3.861972341,-3.991471171,1.866268714,2.060453043,-3.926721756,0,0,0,0,0,0
0.15001449794216326,-3.824919385,-3.975002747,1.837452444,2.062508623,-3.899961066,0,0,0,0,0,0
0.10938283706667494,-3.835933647,-3.945394353,1.863275405,2.027388595,-3.890664,0,0,0,0,0,0
0.10107195232425506,-3.829719178,-3.930876737,1.864323613,2.015974345,-3.880297958,0,0,0,0,0,0
0.109590652,-3.849944903,-3.95963983,1.870177125,2.034615241,-3.904792366,0,0,0,0,0,0
0.1028818837372537,-3.881801932,-3.984774982,1.889460024,2.043828433,-3.933288457,0,0,0,0,0,0
0.090862092,-3.889872885,-3.980796089,1.899505396,2.035829091,-3.935334487,0,0,0,0,0,0
0.066692503,-3.915758394,-3.98250923,1.924532945,2.024600867,-3.949133812,0,0,0,0,0,0
0.088139567,-3.885011678,-3.973231729,1.898436056,2.030685648,-3.929121703,0,0,0,0,0,0
0.12123345555376104,-3.83537493,-3.956685275,1.857070737,2.038959365,-3.896030103,0,0,0,0,0,0
0.14112485752412185,-3.834193394,-3.975388092,1.846534268,2.058256475,-3.904790743,0,0,0,0,0,0
0.1805325165364974,-3.817979551,-3.998584597,1.818723517,2.089558557,-3.908282074,0,0,0,0,0,0
0.13447481998964575,-3.806000603,-3.940544314,1.835762892,2.037509567,-3.873272459,0,0,0,0,0,0
0.071414234,-3.823602547,-3.895078426,1.876094156,1.98324633,-3.859340486,0,0,0,0,0,0
0.081908154,-3.850242036,-3.932207777,1.884166941,2.007057965,-3.891224907,0,0,0,0,0,0
0.095817047,-3.899396746,-3.995246187,1.901789849,2.045531617,-3.947321466,0,0,0,0,0,0
0.098728381,-3.893791778,-3.992578827,1.897531698,2.045653604,-3.943185302,0,0,0,0,0,0
0.10729055608832087,-3.837339551,-3.944745937,1.865024498,2.026018247,-3.891042744,0,0,0,0,0,0
0.11785656440184895,-3.824491501,-3.942456069,1.853317468,2.030156317,-3.883473785,0,0,0,0,0,0
0.12972358686652868,-3.833772652,-3.963571555,1.852024533,2.046647571,-3.898672104,0,0,0,0,0,0
0.13261033445567902,-3.827372894,-3.960051006,1.84738128,2.04633067,-3.89371195,0,0,0,0,0,0
0.13835825257096684,-3.821758412,-3.960172414,1.84170008,2.049265334,-3.890965413,0,0,0,0,0,0
0.12176717705313705,-3.831033426,-3.952907396,1.854633124,2.037337286,-3.891970411,0,0,0,0,0,0
0.1026720720461307,-3.850764382,-3.953535849,1.874046155,2.028103961,-3.902150115,0,0,0,0,0,0
0.071987946,-3.870032317,-3.942069838,1.899022185,2.007028892,-3.906051077,0,0,0,0,0,0
0.062815878,-3.833134724,-3.896009001,1.885159423,1.97941244,-3.864571863,0,0,0,0,0,0
0.075112347,-3.792083279,-3.867289298,1.858485466,1.971200823,-3.829686289,0,0,0,0,0,0
0.085691885,-3.794291954,-3.880087858,1.854300035,1.982889872,-3.837189906,0,0,0,0,0,0
0.11925832661357091,-3.783279637,-3.902594679,1.832010655,2.010926503,-3.842937158,0,0,0,0,0,0
0.11856081124982436,-3.793965699,-3.912597204,1.837702444,2.015579008,-3.853281451,0,0,0,0,0,0
0.096109927,-3.820177485,-3.916391748,1.862033779,2.006250837,-3.868284617,0,0,0,0,0,0
0.059756134,-3.822420599,-3.882246269,1.881332233,1.971001201,-3.852333434,0,0,0,0,0,0
0.038221501433495286,-3.855352818,-3.89367559,1.908565658,1.965948546,-3.874514204,0,0,0,0,0,0
0.085332512,-3.845080353,-3.930525971,1.879873921,2.007929241,-3.887803162,0,0,0,0,0,0
0.12336944585696565,-3.807708964,-3.931165342,1.842169759,2.027267394,-3.869437153,0,0,0,0,0,0
0.14412286934531632,-3.787551939,-3.931742876,1.821714535,2.037932873,-3.859647408,0,0,0,0,0,0
0.14279400895793531,-3.773564217,-3.916421779,1.815385104,2.029607894,-3.844992998,0,0,0,0,0,0
0.079772745,-3.789006239,-3.868896725,1.854616747,1.974334735,-3.828951482,0,0,0,0,0,0
0.052805449,-3.799119361,-3.852009298,1.873156956,1.952407374,-3.825564329,0,0,0,0,0,0
0.038216745,-3.788695729,-3.826945259,1.875239492,1.932581002,-3.807820494,0,0,0,0,0,0
-0.005807259,-3.838578767,-3.832838943,1.922193013,1.913515842,-3.835708855,0,0,0,0,0,0
0.00465772,-3.83202505,-3.836770184,1.913683665,1.920713952,-3.834397617,0,0,0,0,0,0
0.043378296,-3.757948519,-3.801378211,1.857285112,1.922378253,-3.779663365,0,0,0,0,0,0
0.059144842401663386,-3.731643511,-3.790868467,1.836249334,1.925006655,-3.761255989,0,0,0,0,0,0
0.094845843,-3.711734794,-3.806669793,1.808444476,1.950757818,-3.759202294,0,0,0,0,0,0
0.11167943753258341,-3.711076877,-3.822812659,1.79969872,1.967246048,-3.766944768,0,0,0,0,0,0
0.051013744,-3.753770063,-3.804863508,1.851378159,1.927938626,-3.779316785,0,0,0,0,0,0
0.064029195,-3.769939271,-3.834067777,1.852955038,1.949048486,-3.802003524,0,0,0,0,0,0
0.083276019,-3.783891498,-3.867249806,1.850307739,1.975262913,-3.825570652,0,0,0,0,0,0
0.007130109,-3.798097295,-3.805286109,1.895483593,1.906208109,-3.801691702,0,0,0,0,0,0
-0.008787413,-3.738915302,-3.73019093,1.873851358,1.860701759,-3.734553116,0,0,0,0,0,0
0.034784321480953104,-3.682557886,-3.717406526,1.823886782,1.876095424,-3.699982206,0,0,0,0,0,0
0.070584933,-3.692079649,-3.762730894,1.810747358,1.916657914,-3.727405272,0,0,0,0,0,0
0.076939668,-3.700409179,-3.777425466,1.811734755,1.927182567,-3.738917322,0,0,0,0,0,0
0.038170081,-3.687992894,-3.726255096,1.824911406,1.882212589,-3.707123995,0,0,0,0,0,0
0.034202788917126116,-3.698671253,-3.73296028,1.832234232,1.883581534,-3.715815767,0,0,0,0,0,0
0.027788778178573403,-3.729775735,-3.757620203,1.850993478,1.89270449,-3.743697969,0,0,0,0,0,0
0.01201429,-3.750231385,-3.762311201,1.869108547,1.887162745,-3.756271293,0,0,0,0,0,0
0.017680884302260683,-3.712645443,-3.730384072,1.847482279,1.874032478,-3.721514757,0,0,0,0,0,0
0.023706257927257914,-3.67088903,-3.69464481,1.823591386,1.859175534,-3.68276692,0,0,0,0,0,0
0.00975972,-3.642791013,-3.652655485,1.816515646,1.831207603,-3.647723249,0,0,0,0,0,0
0.030837779011407936,-3.622289117,-3.653258258,1.795725669,1.842048018,-3.637773688,0,0,0,0,0,0
0.052743885,-3.630636913,-3.683455771,1.788946514,1.868099828,-3.657046342,0,0,0,0,0,0
0.038780054,-3.625193558,-3.664023772,1.793206752,1.851401913,-3.644608665,0,0,0,0,0,0
0.029536344146931744,-3.64604292,-3.67566654,1.808253288,1.852601442,-3.66085473,0,0,0,0,0,0
0.006285001,-3.685980041,-3.692372019,1.83984752,1.84932851,-3.68917603,0,0,0,0,0,0
-0.016301741,-3.673855414,-3.657627315,1.845078578,1.820662787,-3.665741364,0,0,0,0,0,0
0.007872668,-3.624437269,-3.63237639,1.8082823,1.820124529,-3.628406829,0,0,0,0,0,0
0.029817201,-3.583699044,-3.613595307,1.776940921,1.821706254,-3.598647175,0,0,0,0,0,0
0.025758276863318396,-3.574627816,-3.600482054,1.774434769,1.813120165,-3.587554935,0,0,0,0,0,0
0.003704155,-3.569402367,-3.57318395,1.782849106,1.788444053,-3.571293159,0,0,0,0,0,0
-0.008100957,-3.563066934,-3.555028015,1.785583946,1.773463529,-3.559047475,0,0,0,0,0,0
-0.002466848,-3.566901165,-3.56449851,1.784684006,1.781015831,-3.565699837,0,0,0,0,0,0
0.003250997,-3.57590035,-3.579260721,1.786324676,1.791255859,-3.577580535,0,0,0,0,0,0
-0.01145412,-3.588454785,-3.577105028,1.799954452,1.782825454,-3.582779907,0,0,0,0,0,0
-0.014931485,-3.581262461,-3.566399744,1.798096973,1.775734129,-3.573831103,0,0,0,0,0,0
0.010829553264369275,-3.530667654,-3.541557756,1.759919051,1.776193655,-3.536112705,0,0,0,0,0,0
-0.00274033,-3.508031706,-3.505370036,1.755386018,1.751314853,-3.506700871,0,0,0,0,0,0
-0.022912042,-3.508684002,-3.48585793,1.765798022,1.731472944,-3.497270966,0,0,0,0,0,0
-0.042542193,-3.501431547,-3.458988469,1.77198687,1.708223138,-3.480210008,0,0,0,0,0,0
-0.051056395,-3.517109074,-3.466140472,1.784082734,1.707542039,-3.491624773,0,0,0,0,0,0
-0.049484801,-3.532639481,-3.483246315,1.791062141,1.716880757,-3.507942898,0,0,0,0,0,0
-0.063051142,-3.55384363,-3.490882001,1.808447386,1.71391543,-3.522362816,0,0,0,0,0,0
-0.052585806,-3.551651894,-3.499137738,1.80211885,1.723275966,-3.525394816,0,0,0,0,0,0
-0.007944746,-3.50602973,-3.498172786,1.756987238,1.74511402,-3.502101258,0,0,0,0,0,0
0.039536889,-3.471176453,-3.510786,1.715819782,1.775161444,-3.490981226,0,0,0,0,0,0
0.011873265540584411,-3.485683282,-3.4976245,1.736905008,1.754748883,-3.491653891,0,0,0,0,0,0
-0.037912475,-3.510821876,-3.473002415,1.774367176,1.71754497,-3.491912146,0,0,0,0,0,0
-0.052446309,-3.510051593,-3.457713756,1.781248951,1.702633724,-3.483882674,0,0,0,0,0,0
-0.067099786,-3.531063341,-3.464080341,1.799081563,1.698490277,-3.497571841,0,0,0,0,0,0
-0.045722137,-3.573620986,-3.528005939,1.809671561,1.741141901,-3.550813462,0,0,0,0,0,0
-0.033181763,-3.58220423,-3.549091016,1.807692997,1.757954626,-3.565647623,0,0,0,0,0,0
-0.052099024,-3.552736388,-3.500703707,1.802417706,1.724302342,-3.526720048,0,0,0,0,0,0
-0.053517273,-3.537489254,-3.484054682,1.795503263,1.715268705,-3.510771968,0,0,0,0,0,0
-0.067844201,-3.534863964,-3.467077282,1.801354082,1.69961654,-3.500970623,0,0,0,0,0,0
-0.066931595,-3.553573668,-3.486699134,1.810252632,1.709883769,-3.520136401,0,0,0,0,0,0
-0.052022117,-3.580484263,-3.528507942,1.81625319,1.738242912,-3.554496102,0,0,0,0,0,0
-0.04361732,-3.611944821,-3.568379481,1.82778107,1.762381081,-3.590162151,0,0,0,0,0,0
-0.045323483,-3.656373074,-3.61111677,1.850848278,1.782896643,-3.633744922,0,0,0,0,0,0
-0.054998952,-3.689035909,-3.634085765,1.87201743,1.789543407,-3.661560837,0,0,0,0,0,0
-0.032718846,-3.684074581,-3.651415808,1.858396714,1.809348481,-3.667745194,0,0,0,0,0,0
-0.003522622,-3.680719117,-3.677295755,1.84212087,1.836886567,-3.679007436,0,0,0,0,0,0
0.006883819,-3.673409891,-3.680381926,1.833263036,1.843632873,-3.676895909,0,0,0,0,0,0
0.020740964195254962,-3.684871188,-3.705745179,1.832065112,1.863243072,-3.695308184,0,0,0,0,0,0
0.059834417,-3.722583398,-3.782556515,1.83137449,1.921195466,-3.752569956,0,0,0,0,0,0
0.071157434,-3.753583104,-3.824847945,1.841212835,1.948002689,-3.789215525,0,0,0,0,0,0
0.048084195,-3.785478733,-3.833646627,1.868697269,1.940865411,-3.80956268,0,0,0,0,0,0
0.054133494,-3.826198621,-3.880408362,1.886032563,1.967270928,-3.853303492,0,0,0,0,0,0
0.017030121127271536,-3.833322769,-3.850436459,1.908146324,1.93373329,-3.841879614,0,0,0,0,0,0
0.015573654757066716,-3.821050504,-3.836696139,1.902738425,1.926134897,-3.828873322,0,0,0,0,0,0
0.073089227,-3.816925635,-3.890113157,1.871918204,1.981601192,-3.853519396,0,0,0,0,0,0
0.06358741,-3.817720344,-3.881363431,1.877066467,1.97247542,-3.849541887,0,0,0,0,0,0
0.06580323,-3.812195839,-3.87805394,1.873196305,1.971928585,-3.84512489,0,0,0,0,0,0
0.076040142,-3.844736209,-3.92087597,1.884348033,1.998458056,-3.88280609,0,0,0,0,0,0
0.07234924,-3.888854364,-3.961294802,1.908252562,2.016822021,-3.925074583,0,0,0,0,0,0
0.060520645,-3.915610258,-3.976212874,1.927544807,2.018366759,-3.945911566,0,0,0,0,0,0
0.043454685,-3.915486387,-3.959034688,1.936015851,2.001244686,-3.937260538,0,0,0,0,0,0
0.067604608,-3.882911432,-3.950581504,1.907653412,2.009093056,-3.916746468,0,0,0,0,0,0
0.098307433,-3.8690125,-3.967352013,1.885352534,2.032829723,-3.918182257,0,0,0,0,0,0
0.11654654688454158,-3.862930276,-3.979515563,1.873191865,2.048031055,-3.92122292,0,0,0,0,0,0
0.12743048234510415,-3.877363237,-4.004852315,1.874966378,2.066141399,-3.941107776,0,0,0,0,0,0
0.16047194573728593,-3.886334894,-4.046881907,1.862931474,2.103676927,-3.966608401,0,0,0,0,0,0
0.17348623783677575,-3.890308867,-4.063823997,1.858411314,2.118655118,-3.977066432,0,0,0,0,0,0
0.12386167374428518,-3.952737376,-4.076630806,1.914437851,2.10024624,-4.014684091,0,0,0,0,0,0
0.080818182,-3.97400302,-4.054903276,1.946592419,2.067860729,-4.014453148,0,0,0,0,0,0
0.10504678673584136,-3.913097995,-4.018220151,1.904025604,2.061633469,-3.965659073,0,0,0,0,0,0
0.1354941637575451,-3.882289408,-4.017882301,1.873397622,2.076688232,-3.950085854,0,0,0,0,0,0
0.13122010447764987,-3.895507848,-4.026804504,1.882143872,2.079012304,-3.961156176,0,0,0,0,0,0
0.11754183161503373,-3.894971777,-4.01257878,1.888714973,2.065060306,-3.953775278,0,0,0,0,0,0
0.1266600258183988,-3.888278794,-4.015036033,1.880809384,2.070848029,-3.951657413,0,0,0,0,0,0
0.13653456512968334,-3.895992057,-4.032598165,1.879728746,2.084566365,-3.964295111,0,0,0,0,0,0
0.11488785535559112,-3.916211137,-4.031174594,1.900661641,2.073031225,-3.973692865,0,0,0,0,0,0
0.099125855,-3.951889726,-4.051113404,1.926381935,2.07511963,-4.001501565,0,0,0,0,0,0
0.11810229536928957,-3.940970149,-4.059151649,1.911433927,2.088626972,-4.000060899,0,0,0,0,0,0
0.14001960967123275,-3.904686929,-4.044826253,1.882333659,2.092422931,-3.974756591,0,0,0,0,0,0
0.14807020760169648,-3.908968677,-4.057123035,1.880449235,2.102596621,-3.983045856,0,0,0,0,0,0
0.1541505887818902,-3.90147454,-4.055693735,1.873661976,2.104922162,-3.978584138,0,0,0,0,0,0
0.16217985194940815,-3.895599281,-4.057855688,1.866709714,2.11001777,-3.976727485,0,0,0,0,0,0
0.1735096244744289,-3.91234429,-4.085929223,1.869417333,2.129719424,-3.999136757,0,0,0,0,0,0
0.17984723639967848,-3.922264464,-4.102178282,1.871208614,2.141012759,-4.012221373,0,0,0,0,0,0
0.15583875446523915,-3.954802567,-4.11071682,1.899481907,2.133277787,-4.032759694,0,0,0,0,0,0
0.089224088,-3.965880765,-4.05519815,1.938328339,2.072211119,-4.010539457,0,0,0,0,0,0
0.085418834,-3.940615769,-4.02611283,1.927598468,2.055765832,-3.9833643,0,0,0,0,0,0
0.16049212293243262,-3.89938088,-4.059950333,1.869444379,2.110221228,-3.979665607,0,0,0,0,0,0
0.22940706105189354,-3.855644716,-4.085141524,1.813118827,2.157274292,-3.97039312,0,0,0,0,0,0
0.2680530713528424,-3.858957373,-4.127077952,1.795452151,2.197565512,-3.993017663,0,0,0,0,0,0
0.2578848400882644,-3.874859055,-4.132788516,1.808487108,2.195336678,-4.003823786,0,0,0,0,0,0
0.20121468010079685,-3.897384885,-4.098704447,1.848085102,2.149959564,-3.998044666,0,0,0,0,0,0
0.11731821231853795,-3.935002335,-4.052411432,1.908842061,2.084864822,-3.993706884,0,0,0,0,0,0
0.069736637,-3.935991127,-4.005787342,1.933127245,2.03776199,-3.970889235,0,0,0,0,0,0
0.092600416,-3.890403778,-3.983096537,1.898901681,2.037848476,-3.936750158,0,0,0,0,0,0
0.13530943105584442,-3.89618037,-4.031550386,1.88043547,2.083429908,-3.963865378,0,0,0,0,0,0
0.15087774838315676,-3.91980611,-4.070721254,1.884464181,2.110799501,-3.995263682,0,0,0,0,0,0
0.1549010752425511,-3.894812451,-4.049813854,1.869955688,2.102357465,-3.972313153,0,0,0,0,0,0
0.17295782458251846,-3.879989118,-4.05300646,1.853515647,2.112982142,-3.966497789,0,0,0,0,0,0
0.15534257692575215,-3.884569223,-4.039937546,1.864613323,2.097640061,-3.962253384,0,0,0,0,0,0
0.13184495547225983,-3.911193648,-4.043175089,1.889674346,2.087510022,-3.977184369,0,0,0,0,0,0
0.13379567983602172,-3.964570447,-4.098472933,1.915387383,2.116134306,-4.03152169,0,0,0,0,0,0
0.14676912130127714,-3.951708778,-4.098542124,1.902469828,2.122655623,-4.025125451,0,0,0,0,0,0
0.1987716632953263,-3.897132588,-4.096015342,1.849180462,2.147393503,-3.996573965,0,0,0,0,0,0
0.21433268778560563,-3.870419526,-4.084832328,1.828043419,2.149582508,-3.977625927,0,0,0,0,0,0
0.19892223532420877,-3.863587159,-4.062555509,1.832332462,2.130738872,-3.963071334,0,0,0,0,0,0
0.2169421624646135,-3.869595478,-4.086600938,1.826326658,2.15177155,-3.978098208,0,0,0,0,0,0
0.18136275496133888,-3.886846726,-4.068291541,1.852741986,2.124827148,-3.977569134,0,0,0,0,0,0
0.10073552315754265,-3.925039605,-4.025855342,1.912152041,2.063295432,-3.975447473,0,0,0,0,0,0
0.10862272111866407,-3.963191123,-4.071886168,1.927284201,2.090254444,-4.017538646,0,0,0,0,0,0
0.12550501900284797,-3.942084448,-4.067631754,1.908289715,2.096568386,-4.004858101,0,0,0,0,0,0
0.12736823458669913,-3.904770371,-4.032207641,1.888701068,2.079787938,-3.968489006,0,0,0,0,0,0
0.1440042019385368,-3.888882254,-4.03297062,1.872439026,2.088487411,-3.960926437,0,0,0,0,0,0
0.15967611625612357,-3.882989176,-4.042745376,1.86165653,2.101210746,-3.962867276,0,0,0,0,0,0
0.18807391966889944,-3.88081308,-4.068958269,1.84636958,2.128516094,-3.974885674,0,0,0,0,0,0
0.17764627610211708,-3.897411088,-4.075125731,1.859882406,2.126386003,-3.986268409,0,0,0,0,0,0
0.1594439330394574,-3.912917607,-4.072408492,1.876736837,2.115926212,-3.992663049,0,0,0,0,0,0
0.12846879924327212,-3.945944521,-4.074489368,1.908737861,2.101479083,-4.010216944,0,0,0,0,0,0
0.10478395958574412,-3.945968964,-4.05084885,1.920592502,2.077816405,-3.998408907,0,0,0,0,0,0
0.1301758713903834,-3.895208772,-4.025472905,1.88251645,2.077824388,-3.960340838,0,0,0,0,0,0
0.17869144285896327,-3.878613552,-4.057377454,1.849961054,2.118034449,-3.967995503,0,0,0,0,0,0
0.21005997877585741,-3.882923847,-4.093047379,1.836431934,2.151553679,-3.987985613,0,0,0,0,0,0
0.20912245290087483,-3.886901866,-4.096087118,1.838889707,2.152604786,-3.991494492,0,0,0,0,0,0
0.17515346954523742,-3.896758437,-4.071967353,1.860802484,2.123560411,-3.984362895,0,0,0,0,0,0
0.1260678763662198,-3.910532333,-4.036685536,1.892232228,2.081376706,-3.973608934,0,0,0,0,0,0
0.081632876,-3.932605231,-4.014328884,1.925486178,2.04798088,-3.973467058,0,0,0,0,0,0
0.066959127,-3.967648481,-4.034683964,1.950344677,2.050821546,-4.001166223,0,0,0,0,0,0
0.11794051684504545,-3.949307784,-4.06732911,1.915683634,2.092634814,-4.008318447,0,0,0,0,0,0
0.17659953579206616,-3.900571584,-4.07722275,1.861986024,2.126911143,-3.988897167,0,0,0,0,0,0
0.174229733,-3.886772143,-4.061020319,1.856271205,2.117625026,-3.973896231,0,0,0,0,0,0
0.1687840237387784,-3.909071311,-4.077919614,1.870143643,2.123351819,-3.993495462,0,0,0,0,0,0
0.14797475283918488,-3.901964872,-4.050044036,1.87699506,2.099009394,-3.976004454,0,0,0,0,0,0
0.12170336886815253,-3.886953647,-4.00873656,1.882625139,2.065219965,-3.947845104,0,0,0,0,0,0
0.12291529270101995,-3.901312975,-4.024270133,1.889198841,2.073592713,-3.962791554,0,0,0,0,0,0
0.10679118765291887,-3.94938994,-4.056245674,1.921299376,2.081518431,-4.002817807,0,0,0,0,0,0
0.092281993,-3.953084312,-4.04546082,1.930401159,2.068871407,-3.999272566,0,0,0,0,0,0
0.11044200076421971,-3.92008454,-4.030592197,1.90482127,2.070517099,-3.975338369,0,0,0,0,0,0
0.14109497311962788,-3.911569507,-4.05273133,1.885237267,2.096913152,-3.982150418,0,0,0,0,0,0
0.14411432245612868,-3.898498818,-4.042686163,1.877192248,2.093400243,-3.970592491,0,0,0,0,0,0
0.1329306128952526,-3.898059389,-4.031068383,1.882564388,2.081999498,-3.964563886,0,0,0,0,0,0
0.14898322315966311,-3.896385249,-4.045445506,1.873701013,2.097214364,-3.970915377,0,0,0,0,0,0
0.17288971360835445,-3.887436563,-4.060397076,1.857273425,2.116643395,-3.973916819,0,0,0,0,0,0
0.14326509585351546,-3.94585487,-4.089151401,1.901294887,2.116208249,-4.017503136,0,0,0,0,0,0
0.089307159,-3.984478593,-4.073848864,1.947585717,2.081578011,-4.029163729,0,0,0,0,0,0
0.092844408,-3.945777141,-4.038718405,1.926466366,2.065781407,-3.992247773,0,0,0,0,0,0
0.12775663301408588,-3.901518045,-4.029352678,1.886880706,2.078554656,-3.965435362,0,0,0,0,0,0
0.14725285734669383,-3.899272926,-4.046602272,1.876010035,2.096927565,-3.972937599,0,0,0,0,0,0
0.15916513670264779,-3.907687177,-4.066924157,1.87426102,2.113044647,-3.987305667,0,0,0,0,0,0
0.11534013517754194,-3.923078098,-4.038496927,1.903868981,2.076918531,-3.980787513,0,0,0,0,0,0
0.10402548054629805,-3.924707609,-4.028843621,1.910341064,2.066434551,-3.976775615,0,0,0,0,0,0
0.1134836888870395,-3.944067412,-4.057674662,1.915291861,2.085579176,-4.000871037,0,0,0,0,0,0
0.085329814,-3.979595668,-4.065011384,1.947132927,2.075170599,-4.022303526,0,0,0,0,0,0
0.084990984,-3.966772054,-4.051835491,1.940890535,2.068413238,-4.009303773,0,0,0,0,0,0
0.12381099800412321,-3.924861823,-4.048736315,1.900525412,2.086273657,-3.986799069,0,0,0,0,0,0
0.14373782956683268,-3.907405099,-4.051171343,1.881833634,2.097454586,-3.979288221,0,0,0,0,0,0
0.14519217071543822,-3.905561822,-4.050824315,1.880184826,2.098008243,-3.978193069,0,0,0,0,0,0
0.14902507438709983,-3.919120462,-4.068252777,1.885047694,2.108638926,-3.99368662,0,0,0,0,0,0
0.14298344911869623,-3.923752207,-4.066807375,1.890384379,2.104895412,-3.995279791,0,0,0,0,0,0
0.15074300388817105,-3.923587806,-4.074401349,1.886422401,2.112572177,-3.998994577,0,0,0,0,0,0
0.14128566941893872,-3.970561129,-4.111932382,1.91463773,2.126609026,-4.041246756,0,0,0,0,0,0
0.12558284380930776,-3.963243016,-4.088896446,1.918830086,2.107239645,-4.026069731,0,0,0,0,0,0
0.13699539410732245,-3.914177959,-4.051219973,1.888591282,2.094107684,-3.982698966,0,0,0,0,0,0
0.16322867574852415,-3.899718273,-4.062992506,1.868244799,2.113110591,-3.981355389,0,0,0,0,0,0
0.19160036438027034,-3.89319229,-4.084854658,1.850795963,2.138227511,-3.989023474,0,0,0,0,0,0
0.2130464005883561,-3.895846343,-4.108967339,1.841399971,2.16100687,-4.002406841,0,0,0,0,0,0
0.15557891344328073,-3.897790378,-4.053453224,1.871105732,2.104516069,-3.975621801,0,0,0,0,0,0
0.10265013921229134,-3.883575408,-3.986311074,1.890462634,2.044480607,-3.934943241,0,0,0,0,0,0
0.10588382115933741,-3.939259882,-4.045226417,1.91668803,2.075555119,-3.992243149,0,0,0,0,0,0
0.11492255589027837,-4.02983989,-4.144845719,1.957458667,2.129884138,-4.087342805,0,0,0,0,0,0
0.12037920221498467,-3.995020279,-4.115503433,1.937320538,2.117941318,-4.055261856,0,0,0,0,0,0
0.15457429571724618,-3.93350524,-4.088169986,1.889465472,2.121372141,-4.010837613,0,0,0,0,0,0
0.13385932759534896,-3.926300779,-4.06022908,1.896220726,2.097044204,-3.993264929,0,0,0,0,0,0
0.075976403,-3.928430223,-4.004468893,1.92622691,2.040222648,-3.966449558,0,0,0,0,0,0
0.094288592,-3.919850941,-4.014216748,1.912781174,2.05425267,-3.967033844,0,0,0,0,0,0
0.1073858869772906,-3.924567739,-4.032065014,1.908590926,2.069725451,-3.978316377,0,0,0,0,0,0
0.11134834168747684,-3.951688343,-4.063159042,1.920170001,2.087253692,-4.007423692,0,0,0,0,0,0
0.11593095400303499,-3.983000494,-4.099001307,1.93353477,2.10746613,-4.0410009,0,0,0,0,0,0
0.12700714565521576,-3.972609054,-4.099665389,1.922800954,2.113336267,-4.036137222,0,0,0,0,0,0
0.1470791658729481,-3.929508646,-4.076666821,1.89121474,2.111872994,-4.003087734,0,0,0,0,0,0
0.13959145425626593,-3.905051378,-4.044723615,1.882729962,2.092157534,-3.974887496,0,0,0,0,0,0
0.14453598028379935,-3.924043043,-4.068641036,1.889753531,2.106588508,-3.996342039,0,0,0,0,0,0
0.14369919467101822,-3.932303489,-4.076101111,1.894302147,2.109900153,-4.0042023,0,0,0,0,0,0
0.13811651675645412,-3.944135251,-4.082331733,1.903009367,2.110224125,-4.013233492,0,0,0,0,0,0
0.15537576831167363,-3.967741512,-4.123193317,1.906182872,2.139284543,-4.045467415,0,0,0,0,0,0
0.14931708390455514,-3.991011627,-4.140429663,1.920847272,2.144873374,-4.065720645,0,0,0,0,0,0
0.11663432206960946,-3.981358294,-4.098062928,1.932361986,2.107348625,-4.039710611,0,0,0,0,0,0
0.10700838164198126,-3.946802449,-4.053881868,1.919897034,2.080445125,-4.000342158,0,0,0,0,0,0
0.11298088682337182,-3.938582014,-4.051637471,1.912800564,2.082309179,-3.995109743,0,0,0,0,0,0
0.086568677,-3.922717891,-4.009386844,1.918074607,2.047977761,-3.966052368,0,0,0,0,0,0
0.07886514,-3.912721424,-3.991677534,1.916928142,2.035271337,-3.952199479,0,0,0,0,0,0
0.11208305953709041,-3.931655199,-4.043830551,1.90978607,2.077956805,-3.987742875,0,0,0,0,0,0
0.11896099580410335,-3.929633092,-4.048696385,1.905336048,2.08382869,-3.989164739,0,0,0,0,0,0
0.11938698541900328,-3.968605962,-4.088059753,1.924609488,2.103723369,-4.028332857,0,0,0,0,0,0
0.11150201366752649,-4.000359173,-4.111932127,1.94442858,2.11171707,-4.05614565,0,0,0,0,0,0
0.11441397050165751,-3.952875093,-4.067350416,1.919230561,2.090882193,-4.010112755,0,0,0,0,0,0
0.1457977020157596,-3.928503306,-4.074349158,1.891352802,2.11007343,-4.001426232,0,0,0,0,0,0
0.18511288601421344,-3.929457081,-4.114637739,1.872172098,2.149875313,-4.02204741,0,0,0,0,0,0
0.2106658467423177,-3.928984916,-4.139719497,1.859159534,2.175192672,-4.034352206,0,0,0,0,0,0
0.21171800486210587,-3.935475651,-4.147268672,1.861878823,2.179493339,-4.041372162,0,0,0,0,0,0
0.13605428166936173,-3.932988064,-4.069111567,1.898466891,2.102582924,-4.001049815,0,0,0,0,0,0
0.10016948784872673,-3.963281405,-4.063505661,1.931555958,2.081837575,-4.013393533,0,0,0,0,0,0
0.11068692184680606,-3.990615614,-4.101364842,1.939964346,2.106025882,-4.045990228,0,0,0,0,0,0
0.11825535112727155,-3.960344111,-4.078670946,1.92104438,2.098463149,-4.019507529,0,0,0,0,0,0
0.12666462166619524,-3.941552073,-4.068293286,1.907443726,2.097478954,-4.00492268,0,0,0,0,0,0
0.10609992400757128,-3.92493402,-4.031135697,1.909417048,2.068617811,-3.978034858,0,0,0,0,0,0
0.10247964576952905,-3.938514526,-4.041106624,1.91801744,2.071793135,-3.989810575,0,0,0,0,0,0
0.1282819932216508,-3.947022233,-4.075406914,1.90937012,2.101844454,-4.011214574,0,0,0,0,0,0
0.14241051063117957,-3.932049717,-4.074527634,1.894819603,2.108469072,-4.003288675,0,0,0,0,0,0
0.11291190290836467,-3.96001322,-4.073011057,1.923550659,2.09296148,-4.016512139,0,0,0,0,0,0
0.10184120323591228,-4.012469736,-4.114416511,1.955314266,2.108128857,-4.063443124,0,0,0,0,0,0
0.11897139801635227,-3.99618202,-4.115221648,1.938605311,2.117096523,-4.055701834,0,0,0,0,0,0
0.1413309367684941,-3.940199903,-4.081598266,1.899434483,2.111464601,-4.010899085,0,0,0,0,0,0
0.14394711493102566,-3.939837619,-4.083849321,1.897945252,2.113898218,-4.01184347,0,0,0,0,0,0
0.14835778524370924,-3.948414589,-4.096835145,1.900028402,2.122596465,-4.022624867,0,0,0,0,0,0
0.15338066184920426,-3.934862048,-4.088319176,1.890740693,2.120849919,-4.011590612,0,0,0,0,0,0
0.10442408201788657,-3.941486183,-4.046008646,1.918531051,2.075216364,-3.993747415,0,0,0,0,0,0
0.12106494333487429,-3.949260786,-4.070398613,1.914097921,2.095731778,-4.0098297,0,0,0,0,0,0
0.13934895544646378,-3.984585023,-4.123999702,1.922618034,2.131674329,-4.054292363,0,0,0,0,0,0
0.080710212,-4.006542264,-4.087365342,1.962916026,2.084037777,-4.046953803,0,0,0,0,0,0
0.088007354,-3.951806591,-4.039903755,1.931899618,2.063955554,-3.995855173,0,0,0,0,0,0
0.1228401831791197,-3.928765182,-4.051705146,1.9029625,2.087272665,-3.990235164,0,0,0,0,0,0
0.13532939830528543,-3.936416318,-4.071831569,1.90054346,2.103580484,-4.004123944,0,0,0,0,0,0
0.14270837757235508,-3.9272522,-4.070007893,1.892271911,2.106358135,-3.998630046,0,0,0,0,0,0
0.11739972975849607,-3.933382336,-4.050856542,1.907991303,2.084128136,-3.992119439,0,0,0,0,0,0
0.099295468,-3.95814476,-4.057536153,1.929424646,2.078415811,-4.007840457,0,0,0,0,0,0
0.10233176215682543,-3.996149105,-4.098546664,1.946908671,2.100439213,-4.047347884,0,0,0,0,0,0
0.088139472,-4.009124203,-4.09735106,1.960492365,2.092745266,-4.053237631,0,0,0,0,0,0
0.11455379941602178,-3.974679393,-4.089355515,1.930062797,2.101954657,-4.032017454,0,0,0,0,0,0
0.15433965880875608,-3.941108081,-4.095530131,1.893384211,2.124934895,-4.018319106,0,0,0,0,0,0
0.13783997558775238,-3.934581921,-4.072505889,1.898370973,2.105172932,-4.003543905,0,0,0,0,0,0
0.10625645169786659,-3.936620282,-4.042936883,1.915181915,2.074596667,-3.989778582,0,0,0,0,0,0
0.10338698523827106,-3.940370594,-4.043808593,1.918491805,2.073597789,-3.992089594,0,0,0,0,0,0
0.11626861429182402,-3.954567634,-4.070925626,1.91914951,2.09359712,-4.01274663,0,0,0,0,0,0
0.1143260590470375,-3.980921251,-4.095330646,1.933297596,2.104828352,-4.038125948,0,0,0,0,0,0
0.091124675,-4.021866803,-4.113047052,1.965371064,2.102085863,-4.067456927,0,0,0,0,0,0
0.12121953555461534,-4.004153819,-4.125438926,1.941467142,2.123329231,-4.064796373,0,0,0,0,0,0
0.1608939193532409,-3.955239106,-4.116206598,1.897172593,2.138550259,-4.035722852,0,0,0,0,0,0
0.1483844377130487,-3.944981513,-4.093435287,1.898298537,2.120909863,-4.0192084,0,0,0,0,0,0
0.16129280372965712,-3.926572352,-4.087928919,1.882639774,2.124610861,-4.007250635,0,0,0,0,0,0
0.16354478055017935,-3.918213439,-4.08183992,1.877334329,2.12269235,-4.000026679,0,0,0,0,0,0
0.12655414063180623,-3.93809442,-4.064755029,1.90577014,2.095654585,-4.001424725,0,0,0,0,0,0
0.12961474015532656,-3.965435218,-4.095121511,1.917910239,2.112368126,-4.030278365,0,0,0,0,0,0
0.14075972481291105,-4.025816616,-4.16663242,1.942528445,2.153696072,-4.096224518,0,0,0,0,0,0
0.13713691450447937,-4.049870113,-4.187097777,1.956366599,2.162117346,-4.118483945,0,0,0,0,0,0
0.16595522397087273,-4.002024433,-4.168063544,1.918034604,2.167009384,-4.085043989,0,0,0,0,0,0
0.15048211203541728,-3.969474095,-4.120024823,1.909495991,2.135253468,-4.044749459,0,0,0,0,0,0
0.10400746532509778,-3.96417776,-4.068226816,1.930085147,2.086117141,-4.016202288,0,0,0,0,0,0
0.077471512,-3.958616729,-4.036137165,1.940572609,2.056804339,-3.997376947,0,0,0,0,0,0
0.048750742,-3.972694734,-4.021522862,1.961971996,2.035136802,-3.997108798,0,0,0,0,0,0
0.046451358,-3.989700316,-4.036225176,1.971624479,2.041338267,-4.012962746,0,0,0,0,0,0
0.052877421090412956,-4.011184261,-4.064122008,1.97915342,2.058499715,-4.037653135,0,0,0,0,0,0
0.028316928,-4.039624315,-4.068042486,2.005653694,2.048179707,-4.053833401,0,0,0,0,0,0
0.029811071603060887,-4.01748271,-4.047398316,1.993835819,2.038604694,-4.032440513,0,0,0,0,0,0
0.049170440961745596,-3.988856434,-4.038095303,1.969842996,2.043632872,-4.013475868,0,0,0,0,0,0
0.071362337,-4.002258775,-4.073716993,1.965448219,2.072539665,-4.037987884,0,0,0,0,0,0
0.10981090730267437,-4.015398872,-4.125291872,1.952793982,2.11755139,-4.070345372,0,0,0,0,0,0
0.14331661529411896,-3.987514164,-4.130889847,1.922098774,2.137103231,-4.059202005,0,0,0,0,0,0
0.1089907822372464,-3.989647559,-4.09868038,1.940328388,2.103835581,-4.044163969,0,0,0,0,0,0
0.053310958,-4.027392182,-4.08074116,1.987040612,2.067026059,-4.054066671,0,0,0,0,0,0
0.022558778,-4.060949396,-4.083573709,2.019195309,2.053066243,-4.072261553,0,0,0,0,0,0
0.011095054718977843,-4.061909195,-4.073097588,2.02540707,2.042096321,-4.067503391,0,0,0,0,0,0
-0.001305839,-4.028182688,-4.026980924,2.014744264,2.012837542,-4.027581806,0,0,0,0,0,0
-0.037097584,-3.991051891,-3.954036417,2.014074737,1.958469417,-3.972544154,0,0,0,0,0,0
-0.013320484,-3.972434447,-3.95921851,1.992877466,1.972949013,-3.965826479,0,0,0,0,0,0
-0.001105896,-3.991930011,-3.990906237,1.996517954,1.99490017,-3.991418124,0,0,0,0,0,0
-0.01585157,-4.004541484,-3.988734818,2.010196527,1.986441624,-3.996638151,0,0,0,0,0,0
-0.026413667,-4.024141364,-3.997796734,2.025277516,1.985691533,-4.010969049,0,0,0,0,0,0
-0.048619713,-4.054040418,-4.005504541,2.051330065,1.978442414,-4.029772479,0,0,0,0,0,0
-0.064732925,-4.066708252,-4.002048736,2.065720589,1.968657905,-4.034378494,0,0,0,0,0,0
-0.053887682,-4.055409252,-4.001578214,2.054648467,1.973845266,-4.028493733,0,0,0,0,0,0
-0.020572088,-4.022727899,-4.002214725,2.021649994,1.990821318,-4.012471312,0,0,0,0,0,0
-0.003820625,-4.003847415,-4.000089429,2.00383402,1.998134402,-4.001968422,0,0,0,0,0,0
0.010849881,-3.996242294,-4.007194177,1.992696207,2.009022029,-4.001718235,0,0,0,0,0,0
0.022449096621825176,-3.989102161,-4.011662923,1.983326532,2.01705601,-4.000382542,0,0,0,0,0,0
0.014739137674457715,-4.016404461,-4.031196529,2.000832661,2.022967834,-4.023800495,0,0,0,0,0,0
-0.038768842,-4.039408125,-4.000702355,2.039088484,1.980966757,-4.02005524,0,0,0,0,0,0
-0.063791676,-4.04882887,-3.985121792,2.056310273,1.960665058,-4.016975331,0,0,0,0,0,0
-0.020933174,-4.042543612,-4.021700476,2.031738393,2.000383651,-4.032122044,0,0,0,0,0,0
0.031263961,-4.004236852,-4.035580911,1.986486445,2.033422436,-4.019908882,0,0,0,0,0,0
0.042606486856341545,-3.978340277,-4.021051574,1.967866895,2.03182903,-3.999695925,0,0,0,0,0,0
0.027146080328918243,-3.97980267,-4.007021308,1.976328295,2.017083694,-3.993411989,0,0,0,0,0,0
0.033370617,-3.97357539,-4.006979897,1.970102387,2.020175257,-3.990277643,0,0,0,0,0,0
0.036203917,-3.976810626,-4.013116863,1.970303354,2.02466039,-3.994963744,0,0,0,0,0,0
0.030910879613254436,-3.992144584,-4.023137131,1.980616852,2.027024005,-4.007640857,0,0,0,0,0,0
0.035024414,-4.033223525,-4.068310067,1.999099555,2.05166724,-4.050766796,0,0,0,0,0,0
0.065065654,-4.018768828,-4.083924454,1.976851587,2.074495054,-4.051346641,0,0,0,0,0,0
0.098895601,-3.963418528,-4.062397172,1.932261464,2.080646386,-4.01290785,0,0,0,0,0,0
0.11856504295454615,-3.931124705,-4.049782377,1.906279831,2.08417371,-3.990453541,0,0,0,0,0,0
0.12945884096639107,-3.932077852,-4.061617016,1.901309505,2.095537928,-3.996847434,0,0,0,0,0,0
0.14164069228930343,-3.940800798,-4.082474139,1.899580053,2.112057416,-4.011637469,0,0,0,0,0,0
0.12033489065646298,-3.956445897,-4.07685391,1.918055503,2.0985944,-4.016649904,0,0,0,0,0,0
0.08964844,-3.981671339,-4.071428859,1.94601145,2.080538649,-4.026550099,0,0,0,0,0,0
0.061905354685796096,-4.018520688,-4.080481669,1.978307667,2.071193512,-4.049501178,0,0,0,0,0,0
0.055032834,-4.034400927,-4.089498571,1.989684047,2.072265703,-4.061949749,0,0,0,0,0,0
0.080832183,-3.991265653,-4.072200088,1.955216735,2.076516135,-4.03173287,0,0,0,0,0,0
0.095166472,-3.969544816,-4.064780116,1.937189172,2.079973294,-4.017162466,0,0,0,0,0,0
0.117115407,-3.941050213,-4.058237395,1.911967403,2.087676401,-3.999643804,0,0,0,0,0,0
0.16063753698879585,-3.9355234,-4.096252794,1.887442932,2.128445166,-4.015888097,0,0,0,0,0,0
0.19118375179425148,-3.955880743,-4.147172946,1.882348496,2.169178349,-4.051526845,0,0,0,0,0,0
0.2073798363884567,-3.93945549,-4.146957353,1.866037827,2.177168595,-4.043206422,0,0,0,0,0,0
0.1837596950408536,-3.981642684,-4.165489096,1.898941495,2.174624395,-4.07356589,0,0,0,0,0,0
0.17652188438527583,-4.015760485,-4.19238601,1.9196193,2.184453947,-4.104073248,0,0,0,0,0,0
0.1764352435345917,-3.982236395,-4.158770179,1.902900576,2.167602711,-4.070503287,0,0,0,0,0,0
0.1220519425425601,-3.962766731,-4.084877313,1.920357394,2.103464628,-4.023822022,0,0,0,0,0,0
0.099872365,-3.937456682,-4.037421007,1.918792158,2.068646686,-3.987438844,0,0,0,0,0,0
0.1315494028399109,-3.937264216,-4.068884618,1.902857407,2.10021701,-4.003074417,0,0,0,0,0,0
0.14765124000067678,-3.958553108,-4.106240282,1.905450934,2.126945761,-4.032396695,0,0,0,0,0,0
0.11806188394020697,-3.974789564,-4.092896329,1.92836384,2.105479106,-4.033842946,0,0,0,0,0,0
0.091876521,-3.984536286,-4.076501006,1.946329882,2.084188764,-4.030518646,0,0,0,0,0,0
0.083385096,-3.997271726,-4.080753558,1.956943315,2.082069327,-4.039012642,0,0,0,0,0,0
0.089631512,-3.991745762,-4.081435647,1.951057125,2.085533579,-4.036590704,0,0,0,0,0,0
0.12670459406488352,-3.969675827,-4.096442968,1.921485616,2.111573781,-4.033059397,0,0,0,0,0,0
0.16651970023580775,-3.957597999,-4.124194417,1.89553915,2.145357058,-4.040896208,0,0,0,0,0,0
0.1996313069135175,-3.960258467,-4.15999113,1.88031358,2.179811218,-4.060124798,0,0,0,0,0,0
0.19947913304304196,-3.950653909,-4.150235338,1.875587388,2.174857236,-4.050444623,0,0,0,0,0,0
0.18026928374699883,-3.952380822,-4.132758667,1.886055769,2.156513975,-4.042569744,0,0,0,0,0,0
0.14484323000640237,-3.980406028,-4.125363078,1.917781399,2.135103154,-4.052884553,0,0,0,0,0,0
0.1040750144519876,-4.025956872,-4.130109844,1.960940929,2.117092429,-4.078033358,0,0,0,0,0,0
0.097848317,-4.063801581,-4.161715207,1.982976632,2.129781762,-4.112758394,0,0,0,0,0,0
0.12799390526191504,-4.044714669,-4.172802838,1.958360382,2.150398371,-4.108758753,0,0,0,0,0,0
0.13395650334780257,-4.010542918,-4.144608863,1.938293207,2.139282683,-4.07757589,0,0,0,0,0,0
0.11167153152689296,-4.025176943,-4.136942057,1.956752706,2.124306794,-4.0810595,0,0,0,0,0,0
0.093535923,-4.025383483,-4.118983104,1.96592378,2.106259513,-4.072183293,0,0,0,0,0,0
0.09101649,-4.005480719,-4.096557747,1.957232114,2.093787119,-4.051019233,0,0,0,0,0,0
0.084400006,-4.015535692,-4.099994812,1.965567843,2.092197409,-4.057765252,0,0,0,0,0,0
0.058860489270174794,-4.015673785,-4.074577801,1.978406648,2.066719145,-4.045125793,0,0,0,0,0,0
0.068935718,-3.959431918,-4.028461219,1.9452481,2.048698469,-3.993946569,0,0,0,0,0,0
0.096695275,-3.846981182,-3.943796832,1.875142954,2.020246054,-3.895389007,0,0,0,0,0,0
0.13362666512938068,-3.741886975,-3.875590974,1.804130155,2.004608819,-3.808738974,0,0,0,0,0,0
0.088848139,-3.681169242,-3.770084312,1.796160551,1.929466226,-3.725626777,0,0,0,0,0,0
-0.05352121,-3.660691462,-3.607265932,1.857106336,1.776872361,-3.633978697,0,0,0,0,0,0
-0.193559342,-3.693249284,-3.499775898,1.943404313,1.653108278,-3.596512591,0,0,0,0,0,0
-0.375153013,-3.735053998,-3.359947753,2.055103506,1.49239737,-3.547500875,0,0,0,0,0,0
-0.553242195,-3.796474668,-3.243315965,2.174858432,1.345036885,-3.519895317,0,0,0,0,0,0
-0.763985533,-3.904824245,-3.140946489,2.334404889,1.188480478,-3.522885367,0,0,0,0,0,0
-1.016187732,-3.997437321,-2.981320128,2.506812526,0.982566198,-3.489378725,0,0,0,0,0,0
-1.090240887,-3.941725752,-2.85158197,2.51598332,0.880670542,-3.396653861,0,0,0,0,0,0
-1.021265725,-3.804531701,-2.78334901,2.412898713,0.881041642,-3.293940355,0,0,0,0,0,0
-0.929005206,-3.7180846,-2.789160697,2.323544903,0.930077745,-3.253622649,0,0,0,0,0,0
-0.770146512,-3.642385891,-2.872379171,2.206266201,1.05111633,-3.257382531,0,0,0,0,0,0
-0.583329084,-3.565489452,-2.982263483,2.074409268,1.1994672,-3.273876468,0,0,0,0,0,0
-0.385226573,-3.503332686,-3.118192268,1.94427963,1.366482847,-3.310762477,0,0,0,0,0,0
-0.189611399,-3.495617001,-3.306088297,1.8426142,1.558238449,-3.400852649,0,0,0,0,0,0
-0.038263566,-3.518322369,-3.480138795,1.778292968,1.720937614,-3.499230582,0,0,0,0,0,0
0.098652603,-3.541066595,-3.63981646,1.721206996,1.869234532,-3.590441528,0,0,0,0,0,0
0.23875040875188222,-3.645236442,-3.884070472,1.703243016,2.06141044,-3.764653457,0,0,0,0,0,0
0.36434286281204187,-3.785418274,-4.149805408,1.710537706,2.257074135,-3.967611841,0,0,0,0,0,0
0.4443482327602079,-3.8563268,-4.300732347,1.705989284,2.37254029,-4.078529574,0,0,0,0,0,0
0.49534661930543367,-3.882125099,-4.377564225,1.69338924,2.436455422,-4.129844662,0,0,0,0,0,0
0.5386778513257569,-3.910999768,-4.449777473,1.686160958,2.494227662,-4.180388621,0,0,0,0,0,0
0.524739012,-3.987263283,-4.51209741,1.731262135,2.518418211,-4.249680346,0,0,0,0,0,0
0.4880171548613069,-4.07437955,-4.562494751,1.793181198,2.525255953,-4.318437151,0,0,0,0,0,0
0.4601395558702775,-4.103658098,-4.563893351,1.821759271,2.512016453,-4.333775724,0,0,0,0,0,0
0.46015656718078307,-4.092127164,-4.552364035,1.815985299,2.506260301,-4.322245599,0,0,0,0,0,0
0.4498918176624655,-4.058601672,-4.508569986,1.804354927,2.479230902,-4.283585829,0,0,0,0,0,0
0.43984581247088184,-4.029435852,-4.469353281,1.79479502,2.454599547,-4.249394567,0,0,0,0,0,0
0.4256577653911204,-4.013190838,-4.438901924,1.793766536,2.432279845,-4.226046381,0,0,0,0,0,0
0.38684235398853256,-4.006743673,-4.393653914,1.80995066,2.390248134,-4.200198794,0,0,0,0,0,0
0.3749614301000769,-3.996873352,-4.371940379,1.810955961,2.373450905,-4.184406866,0,0,0,0,0,0
0.3516931041310368,-4.015884339,-4.367645881,1.832095617,2.359669493,-4.19176511,0,0,0,0,0,0
0.2568554692266099,-3.995931174,-4.252820366,1.869537852,2.254837918,-4.12437577,0,0,0,0,0,0
0.16596519007623226,-3.938809412,-4.104833126,1.886422111,2.135399158,-4.021821269,0,0,0,0,0,0
0.16257887694079307,-3.905202633,-4.067846915,1.871311878,2.115212896,-3.986524774,0,0,0,0,0,0
0.15766694908284692,-3.88520754,-4.042951879,1.863770296,2.100309414,-3.96407971,0,0,0,0,0,0
0.16638378421044284,-3.891151669,-4.057615438,1.862383942,2.111999611,-3.974383553,0,0,0,0,0,0
0.15854742192219556,-3.909233155,-4.067854754,1.875342867,2.113201088,-3.988543955,0,0,0,0,0,0
0.10516277156806927,-3.938909998,-4.044163388,1.916873613,2.07466308,-3.991536693,0,0,0,0,0,0
0.097866133,-3.971321144,-4.069296361,1.936727506,2.083581247,-4.020308752,0,0,0,0,0,0
0.077284479,-3.992633306,-4.069998197,1.957674414,2.073641338,-4.031315752,0,0,0,0,0,0
0.09152127,-3.969136903,-4.060755095,1.938807816,2.076138183,-4.014945999,0,0,0,0,0,0
0.15697652588570182,-3.910576194,-4.067658922,1.876799834,2.112317724,-3.989117558,0,0,0,0,0,0
0.1727952159834527,-3.880375311,-4.053274962,1.853790048,2.113035089,-3.966825137,0,0,0,0,0,0
0.15983914754941078,-3.902913665,-4.062856178,1.871537259,2.111347663,-3.982884921,0,0,0,0,0,0
0.13543657503672926,-3.929238375,-4.064737336,1.8969009,2.100086955,-3.996987855,0,0,0,0,0,0
0.09924111,-3.92333267,-4.02263326,1.91204578,2.060937185,-3.972982965,0,0,0,0,0,0
0.087427158,-3.931092365,-4.01858967,1.921832603,2.053008414,-3.974841018,0,0,0,0,0,0
0.077800759,-3.9685171,-4.04638532,1.94535817,2.062093039,-4.00745121,0,0,0,0,0,0
0.081621906,-3.938045028,-4.019734842,1.928211561,2.050678374,-3.978889935,0,0,0,0,0,0
0.098910211,-3.891252639,-3.990252603,1.896171214,2.044581407,-3.940752621,0,0,0,0,0,0
0.10068345017727412,-3.911319739,-4.012064721,1.905318145,2.056374086,-3.96169223,0,0,0,0,0,0
0.10524717220385967,-3.913042743,-4.01833764,1.903897785,2.061792406,-3.965690191,0,0,0,0,0,0
0.10587410459104263,-3.880047111,-3.98597974,1.887086503,2.045926922,-3.933013425,0,0,0,0,0,0
0.080686382,-3.898504256,-3.979240931,1.908908937,2.029963656,-3.938872593,0,0,0,0,0,0
0.066535034,-3.969338971,-4.03595652,1.951401969,2.051245777,-4.002647746,0,0,0,0,0,0
0.059087571,-3.993605101,-4.052801927,1.967258765,2.055944749,-4.023203514,0,0,0,0,0,0
0.073481142,-3.957528054,-4.031099573,1.942023456,2.052290358,-3.994313814,0,0,0,0,0,0
0.11431282677893004,-3.905292741,-4.019674294,1.895489957,2.06699356,-3.962483518,0,0,0,0,0,0
0.11925476287270183,-3.880400307,-3.999742284,1.880572772,2.059498523,-3.940071296,0,0,0,0,0,0
0.10751277707839844,-3.877910633,-3.985506073,1.885198928,2.046509425,-3.931708353,0,0,0,0,0,0
0.11358026785586259,-3.901924406,-4.01559813,1.894172069,2.064589199,-3.958761268,0,0,0,0,0,0
0.11769048928824714,-3.927491549,-4.045301145,1.90490053,2.081495817,-3.986396347,0,0,0,0,0,0
0.14025139595836145,-3.921520359,-4.061861346,1.890634482,2.101056371,-3.991690853,0,0,0,0,0,0
0.10079610985723783,-3.956103106,-4.056959447,1.927653498,2.078877778,-4.006531276,0,0,0,0,0,0
0.057957363,-3.966690975,-4.024740125,1.954366806,2.041348744,-3.99571555,0,0,0,0,0,0
0.052192799,-3.913119651,-3.965410988,1.930463426,2.008801893,-3.939265319,0,0,0,0,0,0
0.058911948701885965,-3.882530299,-3.941501423,1.911809175,2.000206686,-3.912015861,0,0,0,0,0,0
0.07423469,-3.883602274,-3.957882216,1.904683792,2.016058453,-3.920742245,0,0,0,0,0,0
0.074898392,-3.896211921,-3.971173602,1.910656764,2.023035997,-3.933692761,0,0,0,0,0,0
0.097983034,-3.914603919,-4.012659079,1.908310442,2.055321057,-3.963631499,0,0,0,0,0,0
0.09870271,-3.921425123,-4.020203904,1.911361207,2.059453307,-3.970814513,0,0,0,0,0,0
0.072014275,-3.9381378,-4.010227054,1.933061763,2.041120665,-3.974182427,0,0,0,0,0,0
0.056159370611614086,-3.959233858,-4.015444038,1.951537244,2.035801704,-3.987338948,0,0,0,0,0,0
0.055682399,-3.934766468,-3.990510801,1.939542034,2.0230966,-3.962638634,0,0,0,0,0,0
0.076048948,-3.889687086,-3.965805168,1.906819069,2.020927058,-3.927746127,0,0,0,0,0,0
0.10079228251849699,-3.874417359,-3.975244584,1.886812538,2.038018433,-3.924830972,0,0,0,0,0,0
0.097371895,-3.882320321,-3.979775635,1.892474213,2.038573765,-3.931047978,0,0,0,0,0,0
0.090188371,-3.892208141,-3.982549164,1.901009885,2.036368768,-3.937378652,0,0,0,0,0,0
0.09834499,-3.893582036,-3.992018754,1.897618523,2.045181872,-3.942800395,0,0,0,0,0,0
0.10102715336118402,-3.907990527,-4.009091928,1.903481687,2.055059541,-3.958541228,0,0,0,0,0,0
0.080525352,-3.932606142,-4.01323684,1.926040395,2.046881096,-3.972921491,0,0,0,0,0,0
0.021230832,-3.912081954,-3.9334012,1.945425561,1.977316016,-3.922741577,0,0,0,0,0,0
0.027094231,-3.86865959,-3.895832531,1.920782679,1.961463381,-3.88224606,0,0,0,0,0,0
0.052503014,-3.855384647,-3.907953575,1.901440817,1.980228294,-3.881669111,0,0,0,0,0,0
0.058121362713059205,-3.871167637,-3.929364919,1.906523137,1.993743141,-3.900266278,0,0,0,0,0,0
0.053096709,-3.851903251,-3.905100017,1.899403271,1.979098363,-3.878501634,0,0,0,0,0,0
0.037244955,-3.838657656,-3.875996279,1.900706351,1.956620617,-3.857326968,0,0,0,0,0,0
0.011085071977113704,-3.86962146,-3.880802061,1.929268194,1.945943567,-3.875211761,0,0,0,0,0,0
0.008128898,-3.878361735,-3.886574657,1.935116419,1.947351777,-3.882468196,0,0,0,0,0,0
0.008843269,-3.881128031,-3.88999636,1.936142381,1.949419814,-3.885562195,0,0,0,0,0,0
0.016025951,-3.857202458,-3.873248629,1.920588254,1.94463729,-3.865225544,0,0,0,0,0,0
0.054194257071804655,-3.835950733,-3.890198476,1.890878238,1.972196367,-3.863074605,0,0,0,0,0,0
0.078908806,-3.834879589,-3.913840878,1.877985392,1.996374842,-3.874360234,0,0,0,0,0,0
0.087710707,-3.822812404,-3.91059389,1.867550848,1.999152298,-3.866703147,0,0,0,0,0,0
0.082543749,-3.838454676,-3.921053555,1.877955464,2.001798652,-3.879754115,0,0,0,0,0,0
0.055009931,-3.843817913,-3.898885901,1.894403991,1.976947916,-3.871351907,0,0,0,0,0,0
0.046266838,-3.843518996,-3.889864941,1.898626079,1.968065889,-3.866691969,0,0,0,0,0,0
0.003747744,-3.887712202,-3.891526788,1.941982229,1.947637266,-3.889619495,0,0,0,0,0,0
-0.028013963,-3.871392951,-3.843430821,1.949703457,1.907708429,-3.857411886,0,0,0,0,0,0
0.00907039,-3.819765405,-3.828929327,1.905347508,1.918999858,-3.824347366,0,0,0,0,0,0
0.019877787448350316,-3.809690564,-3.829657514,1.894906388,1.924767651,-3.819674039,0,0,0,0,0,0
0.03189122,-3.802480574,-3.834435628,1.885294677,1.933163424,-3.818458101,0,0,0,0,0,0
0.054070083,-3.78314494,-3.837287252,1.864537428,1.945678667,-3.810216096,0,0,0,0,0,0
0.036873162,-3.792285745,-3.829215682,1.877706291,1.933044422,-3.810750713,0,0,0,0,0,0
0.023214288,-3.806900235,-3.830178006,1.891842974,1.926696147,-3.818539121,0,0,0,0,0,0
-0.007712786,-3.828386144,-3.820741725,1.918049465,1.906514469,-3.824563935,0,0,0,0,0,0
-0.021369836,-3.832648848,-3.811365087,1.927009342,1.894997626,-3.822006968,0,0,0,0,0,0
0.030746297135288366,-3.803224891,-3.834051504,1.886239297,1.932398901,-3.818638198,0,0,0,0,0,0
0.054877192,-3.772637078,-3.827593305,1.858879943,1.941235249,-3.800115191,0,0,0,0,0,0
0.068631098,-3.751001256,-3.819700274,1.841185079,1.944165686,-3.785350765,0,0,0,0,0,0
0.049838049,-3.744889024,-3.794792878,1.847525487,1.922315464,-3.769840951,0,0,0,0,0,0
-0.0411965,-3.768759209,-3.72760162,1.904977854,1.84320256,-3.748180414,0,0,0,0,0,0
-0.066737908,-3.789470431,-3.72277868,1.92810417,1.828020386,-3.756124555,0,0,0,0,0,0
-0.036219581,-3.776107795,-3.739977031,1.906163688,1.851878725,-3.758042413,0,0,0,0,0,0
-0.04788161,-3.777971083,-3.730177524,1.912926346,1.841147957,-3.754074303,0,0,0,0,0,0
-0.033296182,-3.743185859,-3.709985753,1.888241021,1.838344785,-3.726585806,0,0,0,0,0,0
-0.01963528,-3.692764132,-3.673217148,1.856199706,1.826790934,-3.68299064,0,0,0,0,0,0
-0.010818181,-3.674359869,-3.663601365,1.842589025,1.826391592,-3.668980617,0,0,0,0,0,0
-0.019899822,-3.694699327,-3.674887195,1.857299575,1.827493687,-3.684793261,0,0,0,0,0,0
-0.028789023,-3.707108864,-3.678410493,1.867948943,1.824810735,-3.692759679,0,0,0,0,0,0
0.004515388,-3.698343196,-3.702941359,1.846913904,1.853728373,-3.700642277,0,0,0,0,0,0
0.014094505025039134,-3.720219179,-3.734404039,1.853062337,1.874249272,-3.727311609,0,0,0,0,0,0
-0.024206758,-3.744885653,-3.72074436,1.884546206,1.848268801,-3.732815006,0,0,0,0,0,0
-0.068733545,-3.683477391,-3.614786313,1.876105468,1.773026384,-3.649131852,0,0,0,0,0,0
-0.094309169,-3.63111523,-3.53687942,1.862712199,1.721285126,-3.583997325,0,0,0,0,0,0
-0.062275226,-3.633700042,-3.571518627,1.847987634,1.754621701,-3.602609334,0,0,0,0,0,0
-0.022131045,-3.630002548,-3.60794767,1.826066797,1.792908313,-3.618975109,0,0,0,0,0,0
-0.0330363,-3.615543284,-3.582619159,1.824289792,1.77479143,-3.599081221,0,0,0,0,0,0
-0.042286755,-3.608607064,-3.566444052,1.82544691,1.762078648,-3.587525558,0,0,0,0,0,0
-0.054011103,-3.627017145,-3.573100092,1.840514124,1.759544495,-3.600058619,0,0,0,0,0,0
-0.059158886,-3.656069235,-3.597014521,1.857614061,1.768927817,-3.626541878,0,0,0,0,0,0
-0.067415881,-3.636958482,-3.569668584,1.852187181,1.751126352,-3.603313533,0,0,0,0,0,0
-0.067684132,-3.605733559,-3.53814536,1.836708845,1.735230614,-3.571939459,0,0,0,0,0,0
-0.023295041,-3.573257196,-3.550037637,1.798276119,1.763371298,-3.561647416,0,0,0,0,0,0
-0.018647885,-3.552383844,-3.53380369,1.785515864,1.757577903,-3.543093767,0,0,0,0,0,0
-0.059481692,-3.546163646,-3.486726315,1.802822669,1.713622312,-3.51644498,0,0,0,0,0,0
-0.090849606,-3.550250447,-3.459462077,1.820550026,1.684306236,-3.504856262,0,0,0,0,0,0
-0.103382858,-3.595306745,-3.492028234,1.849344802,1.694322688,-3.54366749,0,0,0,0,0,0
-0.101093502,-3.627669739,-3.52664142,1.86438162,1.712773959,-3.57715558,0,0,0,0,0,0
-0.092708202,-3.62109777,-3.528448563,1.856902986,1.71787018,-3.574773167,0,0,0,0,0,0
-0.088920145,-3.591052857,-3.502232737,1.839986501,1.706656296,-3.546642797,0,0,0,0,0,0
-0.076198799,-3.55623979,-3.480101563,1.816219295,1.701951382,-3.518170676,0,0,0,0,0,0
-0.071964905,-3.548573941,-3.476638774,1.810269423,1.702336934,-3.512606357,0,0,0,0,0,0
-0.078213434,-3.547487583,-3.469353012,1.812850509,1.695569789,-3.508420297,0,0,0,0,0,0
-0.079060125,-3.559319937,-3.4803545,1.819190031,1.700647188,-3.519837219,0,0,0,0,0,0
-0.101124968,-3.580870239,-3.479808424,1.840997603,1.689341728,-3.530339331,0,0,0,0,0,0
-0.13996419,-3.590209058,-3.450318906,1.865086624,1.655177358,-3.520263982,0,0,0,0,0,0
-0.142896759,-3.626454337,-3.48363644,1.884675548,1.67036984,-3.555045388,0,0,0,0,0,0
-0.123447378,-3.616818801,-3.493427001,1.870133089,1.684989811,-3.555122901,0,0,0,0,0,0
-0.120984344,-3.59424584,-3.473339761,1.857615092,1.676177708,-3.5337928,0,0,0,0,0,0
-0.089750768,-3.586460766,-3.496859658,1.838105767,1.703554445,-3.541660212,0,0,0,0,0,0
-0.068232016,-3.584056745,-3.515938614,1.82614438,1.723853299,-3.549997679,0,0,0,0,0,0
-0.05921085,-3.612664497,-3.553529364,1.835937673,1.747159257,-3.58309693,0,0,0,0,0,0
-0.043107342,-3.636038102,-3.593021916,1.839572722,1.774957287,-3.614530009,0,0,0,0,0,0
-0.056087591,-3.680997374,-3.624979499,1.868542483,1.784445954,-3.652988437,0,0,0,0,0,0
-0.10384157,-3.737005075,-3.633230587,1.920423323,1.764694508,-3.685117831,0,0,0,0,0,0
-0.115362615,-3.747742796,-3.632461672,1.931552705,1.758549529,-3.690102234,0,0,0,0,0,0
-0.064045633,-3.734965101,-3.671004994,1.899505367,1.80347968,-3.702985047,0,0,0,0,0,0
-0.050948107,-3.732732931,-3.681858223,1.891840519,1.815455058,-3.707295577,0,0,0,0,0,0
-0.072798807,-3.725591813,-3.652866201,1.89919531,1.790033697,-3.689229007,0,0,0,0,0,0
-0.080883859,-3.756972411,-3.676149501,1.918928135,1.797632821,-3.716560956,0,0,0,0,0,0
-0.067842657,-3.800426813,-3.732628132,1.934134735,1.832392738,-3.766527472,0,0,0,0,0,0
-0.054212037,-3.83480787,-3.78067422,1.944509954,1.863231091,-3.807741045,0,0,0,0,0,0
-0.06932681,-3.878877257,-3.809618435,1.974102033,1.870145812,-3.844247846,0,0,0,0,0,0
-0.067384243,-3.894727656,-3.827417875,1.98105595,1.880016816,-3.861072766,0,0,0,0,0,0
-0.008381643,-3.863297689,-3.85501185,1.935839666,1.923315104,-3.85915477,0,0,0,0,0,0
0.051515833,-3.844292951,-3.895866348,1.896388559,1.97369109,-3.870079649,0,0,0,0,0,0
0.052863819800746385,-3.857615849,-3.910574703,1.902376015,1.981719261,-3.884095276,0,0,0,0,0,0
0.042823373932457436,-3.883942622,-3.92687194,1.920559624,1.984847657,-3.905407281,0,0,0,0,0,0
0.04775839,-3.895529945,-3.943365363,1.923885777,1.995561876,-3.919447654,0,0,0,0,0,0
0.052842403945575336,-3.8985294,-3.951465045,1.922843498,2.002153724,-3.924997222,0,0,0,0,0,0
0.051554049,-3.928801151,-3.980440506,1.938623551,2.015997277,-3.954620829,0,0,0,0,0,0
0.060774432,-3.96532952,-4.026185082,1.952277544,2.043479757,-3.995757301,0,0,0,0,0,0
0.07094438,-3.952859171,-4.023883872,1.940957396,2.047414126,-3.988371522,0,0,0,0,0,0
0.065135482,-3.915524522,-3.980737493,1.92519452,2.022936488,-3.948131008,0,0,0,0,0,0
0.050509324,-3.936533394,-3.987131775,1.943012035,2.018820549,-3.961832584,0,0,0,0,0,0
0.042950755,-3.956276884,-3.999323743,1.956663064,2.021137249,-3.977800313,0,0,0,0,0,0
0.058859448,-3.93186863,-3.990817748,1.936504591,2.024838598,-3.961343189,0,0,0,0,0,0
0.076822478,-3.936213063,-4.013132836,1.929695292,2.044977657,-3.97467295,0,0,0,0,0,0
0.088600406,-3.964218913,-4.052871299,1.937809254,2.070735853,-4.008545106,0,0,0,0,0,0
0.09672704,-4.012077936,-4.108853545,1.957675448,2.102790292,-4.06046574,0,0,0,0,0,0
0.078453277,-3.996013618,-4.074534462,1.95878017,2.07649387,-4.03527404,0,0,0,0,0,0
0.070235178,-3.946306442,-4.01664037,1.938035632,2.043437774,-3.981473406,0,0,0,0,0,0
0.085170889,-3.915607252,-4.000875719,1.915218181,2.043023304,-3.958241486,0,0,0,0,0,0
0.086960272,-3.938050566,-4.025100511,1.925545147,2.056030392,-3.981575539,0,0,0,0,0,0
0.092726012,-3.961843348,-4.054662799,1.934558668,2.073694405,-4.008253074,0,0,0,0,0,0
0.094641407,-3.958942081,-4.053656868,1.932150337,2.074149137,-4.006299474,0,0,0,0,0,0
0.0963926,-3.986228238,-4.08269946,1.944917819,2.08954603,-4.034463849,0,0,0,0,0,0
0.085824077,-4.003821511,-4.089710629,1.958998717,2.087767353,-4.04676607,0,0,0,0,0,0
0.060993365,-3.993572958,-4.054613018,1.966289796,2.057803192,-4.024092988,0,0,0,0,0,0
0.069156704,-3.970649086,-4.039856352,1.950746191,2.054506528,-4.005252719,0,0,0,0,0,0
0.099068373,-3.916093965,-4.015193802,1.908512796,2.057131087,-3.965643883,0,0,0,0,0,0
0.1076011806471076,-3.920684267,-4.028330125,1.906541543,2.067965653,-3.974507196,0,0,0,0,0,0
0.13233241579341504,-3.965778817,-4.098188167,1.916723201,2.115260291,-4.031983492,0,0,0,0,0,0
0.13605451105364094,-3.960730426,-4.09687521,1.912337957,2.116464861,-4.028802818,0,0,0,0,0,0
0.13632599387815453,-3.959344537,-4.09575932,1.911509272,2.116042657,-4.027551929,0,0,0,0,0,0
0.1420711852885872,-3.984326575,-4.126489132,1.921127695,2.134280159,-4.055407854,0,0,0,0,0,0
0.10548632209730431,-4.0443018,-4.149901514,1.969407739,2.127693918,-4.097101657,0,0,0,0,0,0
0.080911657,-4.042314509,-4.123322461,1.980701426,2.102117059,-4.082818485,0,0,0,0,0,0
0.07838431,-3.966050027,-4.044528289,1.943832858,2.061456299,-4.005289158,0,0,0,0,0,0
0.083800566,-3.92659114,-4.010513029,1.921395287,2.047156798,-3.968552084,0,0,0,0,0,0
0.10331393464557412,-3.911893211,-4.015279154,1.904289638,2.059296544,-3.963586182,0,0,0,0,0,0
0.10454246688638423,-3.917322197,-4.021910496,1.906389865,2.063226482,-3.969616347,0,0,0,0,0,0
0.082839698,-3.938831581,-4.021718831,1.927995941,2.052279265,-3.980275206,0,0,0,0,0,0
0.073601977,-3.963160783,-4.036848802,1.944779403,2.055225389,-4.000004792,0,0,0,0,0,0
0.045199468,-4.026436873,-4.071734503,1.990618703,2.058466986,-4.049085688,0,0,0,0,0,0
0.022842495,-4.051852768,-4.074747629,2.014505137,2.048795062,-4.063300199,0,0,0,0,0,0
0.067140804,-3.980177602,-4.047370474,1.956518399,2.057255639,-4.013774038,0,0,0,0,0,0
0.12022712105646247,-3.938961243,-4.059291124,1.909367061,2.089759123,-3.999126184,0,0,0,0,0,0
0.12558249367751378,-3.933674965,-4.059345504,1.904046236,2.092463999,-3.996510235,0,0,0,0,0,0
0.13741491742328102,-3.93497619,-4.072453384,1.898780636,2.104934151,-4.003714787,0,0,0,0,0,0
0.15554027267737727,-3.951264561,-4.10690518,1.897862144,2.131222726,-4.029084871,0,0,0,0,0,0
0.1355830872565915,-3.961040684,-4.096704594,1.912728798,2.116143841,-4.028872639,0,0,0,0,0,0
0.098659589,-3.97955901,-4.078268853,1.940449711,2.088464221,-4.028913931,0,0,0,0,0,0
0.092396629,-3.98049274,-4.072954019,1.944048055,2.082675324,-4.026723379,0,0,0,0,0,0
0.12249419720315079,-3.964468994,-4.087044827,1.920987398,2.104769512,-4.02575691,0,0,0,0,0,0
0.14937834222636293,-3.952742781,-4.102218258,1.90168222,2.1257983,-4.02748052,0,0,0,0,0,0
0.1587566616497333,-3.954523167,-4.113389581,1.897883253,2.136073121,-4.033956374,0,0,0,0,0,0
0.13762940629721718,-3.948554442,-4.08623833,1.905462518,2.111933868,-4.017396386,0,0,0,0,0,0
0.12872804704754848,-3.922315444,-4.051088158,1.896793698,2.089908103,-3.986701801,0,0,0,0,0,0
0.12489269983894478,-3.929818641,-4.054770847,1.902462971,2.089831773,-3.992294744,0,0,0,0,0,0
0.088046751,-3.961078848,-4.049188228,1.936516048,2.068617489,-4.005133538,0,0,0,0,0,0
0.065602707,-3.997949307,-4.063616935,1.9661733,2.064609821,-4.030783121,0,0,0,0,0,0
0.082294666,-3.975623977,-4.057971805,1.946664655,2.070133236,-4.016797891,0,0,0,0,0,0
0.097810683,-3.926372061,-4.024238384,1.914280689,2.061024533,-3.975305223,0,0,0,0,0,0
0.093165037,-3.928912004,-4.02215802,1.917873483,2.057661529,-3.975535012,0,0,0,0,0,0
0.095841904,-3.944200976,-4.040140697,1.924179536,2.067991301,-3.992170837,0,0,0,0,0,0
0.10507302254649824,-3.938972803,-4.044140302,1.91694989,2.074606662,-3.991556553,0,0,0,0,0,0
0.10661535112979835,-3.957526878,-4.064234845,1.925455763,2.085425098,-4.010880862,0,0,0,0,0,0
0.087776591,-4.005507327,-4.093375104,1.958865368,2.090575848,-4.049441216,0,0,0,0,0,0
0.057485712,-4.053651399,-4.111224884,1.998082844,2.084355298,-4.082438142,0,0,0,0,0,0
0.064408871,-4.031961525,-4.096452427,1.983776327,2.080430649,-4.064206976,0,0,0,0,0,0
0.092641728,-3.959236547,-4.051961857,1.93329741,2.072301793,-4.005599202,0,0,0,0,0,0
0.10980643196721598,-3.930672649,-4.040566594,1.910433109,2.075186513,-3.985619621,0,0,0,0,0,0
0.11837459786544005,-3.941076265,-4.059526971,1.911350833,2.088950784,-4.000301618,0,0,0,0,0,0
0.1087763961136165,-3.969816137,-4.078682691,1.93051987,2.093729544,-4.024249414,0,0,0,0,0,0
0.1022683007598834,-3.980135364,-4.082503358,1.938933532,2.092385829,-4.031319361,0,0,0,0,0,0
0.110034679,-3.984112375,-4.094248658,1.937038848,2.102141668,-4.039180517,0,0,0,0,0,0
0.10138551095446373,-3.988833836,-4.090310641,1.943724163,2.095848076,-4.039572239,0,0,0,0,0,0
0.085340073,-3.979146041,-4.064593202,1.946902984,2.074966637,-4.021869621,0,0,0,0,0,0
0.091071134,-3.958662927,-4.049838245,1.933795896,2.070454689,-4.004250586,0,0,0,0,0,0
0.11481857611832458,-3.929088316,-4.043971388,1.90713487,2.079394982,-3.986529852,0,0,0,0,0,0
0.1291429416166391,-3.918382951,-4.047609582,1.894620005,2.088376262,-3.982996266,0,0,0,0,0,0
0.12085655304179728,-3.92775123,-4.048677978,1.903447338,2.084767266,-3.988214604,0,0,0,0,0,0
0.16273663448436393,-3.942204551,-4.105019341,1.889733958,2.133877988,-4.023611946,0,0,0,0,0,0
0.1802282454447176,-3.968436139,-4.148790941,1.894103947,2.164509593,-4.05861354,0,0,0,0,0,0
0.094638423,-4.009372604,-4.104120174,1.957367091,2.099379298,-4.056746389,0,0,0,0,0,0
0.050249971,-4.007682324,-4.05802493,1.978716176,2.054137451,-4.032853627,0,0,0,0,0,0
0.051370755,-3.97955854,-4.031020844,1.964093893,2.041195799,-4.005289692,0,0,0,0,0,0
0.10205825439098413,-3.935217807,-4.037355332,1.916579776,2.069706793,-3.98628657,0,0,0,0,0,0
0.16317762136036293,-3.922207784,-4.085485527,1.879515081,2.124331574,-4.003846656,0,0,0,0,0,0
0.14372879626555649,-3.949169382,-4.092990526,1.902720293,2.118359661,-4.021079954,0,0,0,0,0,0
0.10820664777079414,-3.953758883,-4.062051471,1.922776118,2.08512906,-4.007905177,0,0,0,0,0,0
0.046179968,-3.995897421,-4.042170589,1.974858727,2.044175279,-4.019034005,0,0,0,0,0,0
0.013666864444688728,-4.023118166,-4.03685968,2.004725651,2.025263272,-4.029988923,0,0,0,0,0,0
0.035430385,-4.001185054,-4.036689505,1.982877335,2.036059945,-4.01893728,0,0,0,0,0,0
0.050675444,-3.963204851,-4.013975296,1.956264703,2.03232537,-3.988590073,0,0,0,0,0,0
0.074259526,-3.929988576,-4.004355386,1.927864525,2.039307456,-3.967171981,0,0,0,0,0,0
0.084339471,-3.945231276,-4.02964816,1.930445902,2.056993815,-3.987439718,0,0,0,0,0,0
0.097436451,-3.954091308,-4.051617048,1.928327429,2.074526749,-4.002854178,0,0,0,0,0,0
0.12051956662377011,-3.94419325,-4.064826461,1.911836842,2.092673014,-4.004509856,0,0,0,0,0,0
0.12662644326645417,-3.973857347,-4.100582013,1.923615452,2.113604228,-4.03721968,0,0,0,0,0,0
0.1147886364121636,-3.993682824,-4.108562396,1.939447094,2.111675516,-4.05112261,0,0,0,0,0,0
0.059901013734968624,-4.025046357,-4.084992147,1.982572671,2.07244658,-4.055019252,0,0,0,0,0,0
0.033212754,-4.0401105,-4.073386328,2.003448873,2.053299541,-4.056748414,0,0,0,0,0,0
0.065013819,-3.989852999,-4.054965204,1.96241959,2.059989512,-4.022409101,0,0,0,0,0,0
0.10799093672495792,-3.951647863,-4.059717135,1.921828463,2.083854036,-4.005682499,0,0,0,0,0,0
0.15620836464180418,-3.942985597,-4.099246964,1.893388616,2.127727664,-4.021116281,0,0,0,0,0,0
0.15758448371706574,-3.944195442,-4.101839562,1.893305479,2.129712023,-4.023017502,0,0,0,0,0,0
0.16703694528793128,-3.92975931,-4.096897828,1.881361182,2.131967387,-4.013328569,0,0,0,0,0,0
0.15074681591862527,-3.949149695,-4.100003677,1.89920144,2.125375247,-4.024576686,0,0,0,0,0,0
0.083210525,-4.018701758,-4.102002729,1.967745616,2.092606627,-4.060352244,0,0,0,0,0,0
0.080212219,-4.041390921,-4.121676329,1.980589351,2.100944274,-4.081533625,0,0,0,0,0,0
0.088769522,-4.017079217,-4.105912194,1.964154847,2.097340858,-4.061495705,0,0,0,0,0,0
0.093662207,-3.999883779,-4.093607782,1.953110786,2.093634995,-4.046745781,0,0,0,0,0,0
0.098139427,-3.980613971,-4.078811056,1.941237272,2.088475242,-4.029712514,0,0,0,0,0,0
0.10994819499008258,-3.974355618,-4.084371729,1.932203711,2.097159962,-4.029363673,0,0,0,0,0,0
0.11337272949749909,-3.982269603,-4.095702941,1.934448437,2.104537835,-4.038986272,0,0,0,0,0,0
0.068004261,-3.968985935,-4.037065719,1.950490837,2.05253499,-4.003025827,0,0,0,0,0,0
0.073527265,-3.98484414,-4.058459177,1.955658437,2.065993221,-4.021651658,0,0,0,0,0,0
0.089442948,-4.024043332,-4.113568462,1.967300192,2.101505705,-4.068805897,0,0,0,0,0,0
0.053473417,-4.011380715,-4.064898928,1.978953649,2.059186173,-4.038139822,0,0,0,0,0,0
0.058835447,-3.992667516,-4.051570631,1.966916035,2.055203039,-4.022119073,0,0,0,0,0,0
0.11802989744038096,-3.979279042,-4.097422426,1.930624572,2.107726162,-4.038350734,0,0,0,0,0,0
0.11891182465654762,-3.95890906,-4.077913815,1.919998618,2.09841282,-4.018411438,0,0,0,0,0,0
0.080727739,-3.960277474,-4.041112145,1.939774867,2.060919942,-4.00069481,0,0,0,0,0,0
0.074863498,-3.975872971,-4.050827351,1.950504737,2.062845425,-4.013350161,0,0,0,0,0,0
0.055527245,-3.995036227,-4.050623188,1.969754491,2.053075217,-4.022829708,0,0,0,0,0,0
0.045008747,-4.040007717,-4.085090844,1.997499485,2.065049795,-4.06254928,0,0,0,0,0,0
0.050779691141085756,-4.050877514,-4.101735249,2.000048912,2.07625747,-4.076306382,0,0,0,0,0,0
0.09861901,-4.0076036,-4.106320768,1.954492295,2.102469889,-4.056962184,0,0,0,0,0,0
0.11336022628735656,-3.970666061,-4.084128673,1.928652917,2.098744449,-4.027397367,0,0,0,0,0,0
0.051951979,-3.972650207,-4.02465023,1.960349114,2.038301104,-3.998650218,0,0,0,0,0,0
0.05224994,-4.005959011,-4.058249543,1.976854535,2.055249741,-4.032104277,0,0,0,0,0,0
0.069798304,-3.99062637,-4.06049713,1.960414033,2.065147717,-4.02556175,0,0,0,0,0,0
0.07249991,-4.014847981,-4.087414181,1.971174036,2.079957045,-4.051131081,0,0,0,0,0,0
0.084953409,-4.045817915,-4.130865771,1.980432253,2.10790959,-4.088341843,0,0,0,0,0,0
0.072949704,-4.041500104,-4.114574071,1.9842752,2.093761888,-4.078037088,0,0,0,0,0,0
0.068777273,-4.017310363,-4.086145986,1.974266545,2.077461629,-4.051728174,0,0,0,0,0,0
0.087567078,-3.971610016,-4.059236551,1.942021469,2.073401814,-4.015423283,0,0,0,0,0,0
0.1202961746947437,-3.969266041,-4.089635088,1.924484933,2.104965631,-4.029450564,0,0,0,0,0,0
0.14427818459938885,-3.991111982,-4.135484259,1.923416899,2.139881222,-4.06329812,0,0,0,0,0,0
0.14318519936571314,-3.984591116,-4.127904563,1.920702959,2.135544881,-4.05624784,0,0,0,0,0,0
0.11129338276290282,-3.999426957,-4.110804154,1.944066787,2.111048768,-4.055115555,0,0,0,0,0,0
0.12230399072829168,-4.023497321,-4.145867107,1.950596665,2.134085549,-4.084682214,0,0,0,0,0,0
0.1359526264132012,-4.063185092,-4.199217216,1.963616233,2.167584921,-4.131201154,0,0,0,0,0,0
0.1128295437441746,-4.065598564,-4.178499483,1.97638451,2.145664513,-4.122049023,0,0,0,0,0,0
0.10868199796404097,-4.006342592,-4.115095225,1.948830297,2.111888611,-4.060718908,0,0,0,0,0,0
0.076750693,-3.98903604,-4.065882009,1.956142673,2.071316351,-4.027459025,0,0,0,0,0,0
0.088533659,-3.988481113,-4.077124002,1.949973727,2.082828831,-4.032802557,0,0,0,0,0,0
0.15158777407742602,-3.977226567,-4.128912947,1.912819397,2.14025036,-4.053069757,0,0,0,0,0,0
0.14837587407548897,-3.983677355,-4.132139475,1.91765074,2.140257674,-4.057908415,0,0,0,0,0,0
0.099446652,-3.998742234,-4.098299987,1.949647791,2.098873319,-4.048521111,0,0,0,0,0,0
0.066441576,-4.053638479,-4.120167931,1.993598452,2.093304753,-4.086903205,0,0,0,0,0,0
0.081796103,-4.062142559,-4.143997105,1.990173228,2.112896604,-4.103069832,0,0,0,0,0,0
0.10610173243376798,-4.003113869,-4.109275408,1.948506068,2.10768857,-4.056194639,0,0,0,0,0,0
0.09424879,-3.99391191,-4.088228638,1.94983156,2.091238714,-4.041070274,0,0,0,0,0,0
0.096679748,-3.993589594,-4.090355661,1.948454923,2.093517704,-4.041972627,0,0,0,0,0,0
0.11921088649373378,-3.978164422,-4.09744564,1.929476768,2.108328263,-4.037805031,0,0,0,0,0,0
0.11357949113051277,-3.979833497,-4.093462066,1.933127003,2.103520778,-4.036647781,0,0,0,0,0,0
0.09577465,-3.997976616,-4.093831968,1.951100983,2.094803309,-4.045904292,0,0,0,0,0,0
0.08354265,-4.023136625,-4.106753161,1.969796987,2.095147906,-4.064944893,0,0,0,0,0,0
0.070191778,-4.044802071,-4.115056348,1.987305146,2.092624063,-4.07992921,0,0,0,0,0,0
0.051083832,-4.02734833,-4.078522168,1.988132249,2.064803,-4.052935249,0,0,0,0,0,0
0.060873276,-3.998077157,-4.059032008,1.96860194,2.059952642,-4.028554583,0,0,0,0,0,0
0.11246133618629206,-3.990231067,-4.102773265,1.938884865,2.107617301,-4.046502166,0,0,0,0,0,0
0.10886101027992887,-3.961731768,-4.070675039,1.926435379,2.089768025,-4.016203404,0,0,0,0,0,0
0.084390457,-3.979872241,-4.0643132,1.947740892,2.074351829,-4.02209272,0,0,0,0,0,0
0.089093568,-4.031974118,-4.121111447,1.971440275,2.105102507,-4.076542783,0,0,0,0,0,0
0.097190032,-4.034004415,-4.131252755,1.968407191,2.114221394,-4.082628585,0,0,0,0,0,0
0.078069051,-4.049422155,-4.127571856,1.985676552,2.102820453,-4.088497005,0,0,0,0,0,0
0.054797887512408966,-4.038253135,-4.093127175,1.991727624,2.073962531,-4.065690155,0,0,0,0,0,0
0.078042049,-4.0035411,-4.081646466,1.962749526,2.079844258,-4.042593783,0,0,0,0,0,0
0.12170653191239515,-4.003481244,-4.125272857,1.940887356,2.123489695,-4.064377051,0,0,0,0,0,0
0.1419070900428036,-3.991330627,-4.133338652,1.924711769,2.137622871,-4.062334639,0,0,0,0,0,0
0.1390497389025742,-3.987251642,-4.126351024,1.924100952,2.132700381,-4.056801333,0,0,0,0,0,0
0.12349779961743763,-4.010790605,-4.134340644,1.943646403,2.128919222,-4.072565625,0,0,0,0,0,0
0.1108229878712999,-4.012011817,-4.122913537,1.950594415,2.116868263,-4.067462677,0,0,0,0,0,0
0.10804419806524518,-4.027292051,-4.13540059,1.959623926,2.121722394,-4.08134632,0,0,0,0,0,0
0.090789237,-4.042301437,-4.133182353,1.9757561,2.111985795,-4.087741895,0,0,0,0,0,0
0.095100126,-4.034154515,-4.129350026,1.969527194,2.112225076,-4.08175227,0,0,0,0,0,0
0.12338420130037332,-4.009879981,-4.133347205,1.94324789,2.128365703,-4.071613593,0,0,0,0,0,0
0.14643735317091455,-3.992148427,-4.138638944,1.922855537,2.142538149,-4.065393686,0,0,0,0,0,0
0.15159101510021994,-3.993045092,-4.144700088,1.920727039,2.148145552,-4.06887259,0,0,0,0,0,0
0.10717247010314596,-4.009020171,-4.11624708,1.95092385,2.111709775,-4.062633625,0,0,0,0,0,0
0.06610401,-4.034649435,-4.100783522,1.984272712,2.083443766,-4.067716478,0,0,0,0,0,0
0.063435124,-4.043684745,-4.107155362,1.990124811,2.085295243,-4.075420053,0,0,0,0,0,0
0.055384498,-4.050314565,-4.105747929,1.997465034,2.080566213,-4.078031247,0,0,0,0,0,0
0.063019466,-4.02757266,-4.090643891,1.982276597,2.076831679,-4.059108275,0,0,0,0,0,0
0.076287642,-3.983878959,-4.060206647,1.953795658,2.068247145,-4.022042803,0,0,0,0,0,0
0.084582554,-3.996215781,-4.080872125,1.955816614,2.082727339,-4.038543953,0,0,0,0,0,0
0.093942031,-4.01433683,-4.108385994,1.960197399,2.101164013,-4.061361412,0,0,0,0,0,0
0.094662051,-3.990252056,-4.084990597,1.947795002,2.089826324,-4.037621326,0,0,0,0,0,0
0.096286735,-4.000172845,-4.096526831,1.951943055,2.096406783,-4.048349838,0,0,0,0,0,0
0.084233447,-4.040956248,-4.125251608,1.978361401,2.104742527,-4.083103928,0,0,0,0,0,0
0.068049808,-4.075467264,-4.143623817,2.003708728,2.105836813,-4.109545541,0,0,0,0,0,0
0.056440100483624946,-4.059335995,-4.115883548,2.001447947,2.086161824,-4.087609771,0,0,0,0,0,0
0.057542521,-4.010100719,-4.067732632,1.976279099,2.062637577,-4.038916676,0,0,0,0,0,0
0.032994500690415374,-4.018883957,-4.051948356,1.992944728,2.042471428,-4.035416157,0,0,0,0,0,0
0.021493256705152335,-4.052344381,-4.073909486,2.015425562,2.047701371,-4.063126933,0,0,0,0,0,0
0.019357618098213788,-4.055517906,-4.075027321,2.018080144,2.047192469,-4.065272613,0,0,0,0,0,0
0.000697713,-4.061383867,-4.062191571,2.030343077,2.031444642,-4.061787719,0,0,0,0,0,0
0.015218014227086917,-4.07247453,-4.087755598,2.028628258,2.051486806,-4.080115064,0,0,0,0,0,0
0.008279712,-4.102026095,-4.110379632,2.046873191,2.059329672,-4.106202863,0,0,0,0,0,0
-0.012241059,-4.097513711,-4.085348784,2.054877385,2.036553863,-4.091431248,0,0,0,0,0,0
-0.007622582,-4.061176095,-4.053623079,2.034399338,2.023000249,-4.057399587,0,0,0,0,0,0
-0.006133366,-4.040840213,-4.03479237,2.02348679,2.014329502,-4.037816292,0,0,0,0,0,0
-0.003881878,-4.023842467,-4.020054024,2.013862172,2.008086073,-4.021948246,0,0,0,0,0,0
-0.014127256,-4.027787441,-4.013764239,2.020957348,1.999818492,-4.02077584,0,0,0,0,0,0
-0.018275641,-4.015234685,-3.997055276,2.016755163,1.989389818,-4.006144981,0,0,0,0,0,0
-0.003852022,-4.026108162,-4.022353931,2.014980092,2.009250954,-4.024231046,0,0,0,0,0,0
-0.011411791,-4.089314033,-4.077975576,2.050362912,2.033281893,-4.083644804,0,0,0,0,0,0
-0.01239891,-4.104060298,-4.091730661,2.058229604,2.039665875,-4.09789548,0,0,0,0,0,0
0.001343232,-4.073221451,-4.074646342,2.035939109,2.037994787,-4.073933896,0,0,0,0,0,0
-0.002963934,-4.044812649,-4.041910622,2.023888291,2.019473344,-4.043361635,0,0,0,0,0,0
-0.03160667,-4.027896168,-3.996352069,2.029751419,1.982372699,-4.012124118,0,0,0,0,0,0
-0.054051859,-4.055616898,-4.001645778,2.054834378,1.97379696,-4.028631338,0,0,0,0,0,0
-0.053105847,-4.063969929,-4.010951847,2.058537888,1.978923,-4.037460888,0,0,0,0,0,0
-0.027578735,-4.069638299,-4.042107989,2.048608517,2.007264627,-4.055873144,0,0,0,0,0,0
0.004501255,-4.09208267,-4.096624932,2.043790707,2.050563094,-4.094353801,0,0,0,0,0,0
-0.013502053,-4.101465468,-4.088050889,2.05748376,2.037274418,-4.094758178,0,0,0,0,0,0
-0.034602925,-4.076486961,-4.042009151,2.055544943,2.003703113,-4.059248056,0,0,0,0,0,0
-0.006432797,-4.031779494,-4.025449789,2.019106146,2.009508496,-4.028614642,0,0,0,0,0,0
-0.004670223,-4.007081161,-4.002489809,2.005875692,1.998909793,-4.004785485,0,0,0,0,0,0
0.000993624,-3.993670135,-3.994732747,1.996338256,1.997863185,-3.994201441,0,0,0,0,0,0
0.018845751572048652,-3.976569774,-3.995469426,1.978862011,2.007157589,-3.9860196,0,0,0,0,0,0
0.013753267647410092,-3.997700129,-4.011514938,1.991973431,2.012634103,-4.004607534,0,0,0,0,0,0
0.021052337891910237,-4.042819558,-4.063941942,2.01088361,2.04249714,-4.05338075,0,0,0,0,0,0
0.009564311,-4.066962424,-4.076620332,2.028699056,2.043092322,-4.071791378,0,0,0,0,0,0
0.006235579,-4.058638145,-4.064952407,2.026201283,2.035593993,-4.061795276,0,0,0,0,0,0
0.031566927,-4.023419535,-4.055042565,1.995926304,2.043304746,-4.03923105,0,0,0,0,0,0
0.049953648833283855,-3.986504617,-4.036506736,1.968275484,2.043230193,-4.011505677,0,0,0,0,0,0
0.040429177,-3.961403782,-4.001901666,1.960487303,2.021165422,-3.981652724,0,0,0,0,0,0
0.060165004,-3.947612573,-4.007873687,1.943723784,2.034019346,-3.97774313,0,0,0,0,0,0
0.099481543,-3.951298304,-4.050850491,1.925908381,2.075166017,-4.001074398,0,0,0,0,0,0
0.113111087,-3.989642803,-4.102801206,1.938265858,2.107956146,-4.046222004,0,0,0,0,0,0
0.094566897,-4.054850988,-4.149499219,1.980142046,2.122033058,-4.102175104,0,0,0,0,0,0
0.09065809,-4.06409189,-4.154826507,1.9867169,2.122742299,-4.109459199,0,0,0,0,0,0
0.12822764956158494,-4.021381337,-4.149673284,1.946576844,2.138950467,-4.085527311,0,0,0,0,0,0
0.1300519902369695,-3.999846028,-4.129979352,1.934897019,2.130015671,-4.06491269,0,0,0,0,0,0
0.094207347,-4.020146286,-4.114459267,1.962969469,2.104333307,-4.067302777,0,0,0,0,0,0
0.067610669,-4.005629151,-4.073328963,1.969009241,2.070469816,-4.039479057,0,0,0,0,0,0
0.071525577,-3.963057368,-4.034639356,1.945765895,2.053082466,-3.998848362,0,0,0,0,0,0
0.10007053010817656,-3.986302066,-4.086440883,1.943115768,2.093255706,-4.036371474,0,0,0,0,0,0
0.088009389,-4.028597648,-4.116687528,1.97029413,2.102348458,-4.072642588,0,0,0,0,0,0
0.089865468,-4.057252751,-4.147195771,1.983693641,2.118530619,-4.102224261,0,0,0,0,0,0
0.1024109274063299,-4.035919711,-4.138394303,1.966754392,2.120402615,-4.087157007,0,0,0,0,0,0
0.11345607191033243,-3.980383303,-4.093931758,1.933463615,2.103693915,-4.03715753,0,0,0,0,0,0
0.14944373032795208,-3.939949624,-4.089498608,1.895252947,2.119471169,-4.014724116,0,0,0,0,0,0
0.14364924317007383,-3.952067577,-4.095788012,1.904209167,2.119718628,-4.023927794,0,0,0,0,0,0
0.12200680861841412,-3.983024149,-4.105102592,1.93050867,2.1135547,-4.04406337,0,0,0,0,0,0
0.1291539182549631,-4.001152222,-4.130409436,1.935999152,2.129781677,-4.065780829,0,0,0,0,0,0
0.11365753984039388,-4.001122286,-4.11487042,1.943732373,2.11426398,-4.057996353,0,0,0,0,0,0
0.079438096,-4.022520943,-4.102050033,1.971541423,2.090744065,-4.062285488,0,0,0,0,0,0
0.079583779,-4.069735365,-4.149411435,1.995075793,2.114497607,-4.1095734,0,0,0,0,0,0
0.1179993928529962,-4.016614836,-4.134680237,1.949307722,2.126339815,-4.075647536,0,0,0,0,0,0
0.16227375897811397,-3.956354232,-4.118731393,1.897040236,2.140502576,-4.037542812,0,0,0,0,0,0
0.19273355486102928,-3.94401348,-4.136857468,1.875639962,2.164795511,-4.040435474,0,0,0,0,0,0
0.17191535769755112,-3.935654246,-4.107651474,1.881869444,2.139783416,-4.02165286,0,0,0,0,0,0
0.12273786166054802,-3.972966005,-4.09577341,1.925114071,2.109255636,-4.034369707,0,0,0,0,0,0
0.12102929000753863,-4.011517966,-4.132609309,1.945244338,2.126819299,-4.072063637,0,0,0,0,0,0
0.15363552697296212,-4.026241131,-4.179939654,1.936302802,2.166787591,-4.103090393,0,0,0,0,0,0
0.16497583988216985,-4.050030654,-4.215071469,1.942527407,2.190023655,-4.132551061,0,0,0,0,0,0
0.11043704035878377,-4.030715775,-4.141211866,1.960139367,2.125824453,-4.08596382,0,0,0,0,0,0
0.084407668,-4.004038355,-4.088502938,1.959815344,2.086455303,-4.046270646,0,0,0,0,0,0
0.1417333709849741,-3.997182536,-4.138982367,1.927724583,2.140357869,-4.068082452,0,0,0,0,0,0
0.1701011544661616,-4.005214901,-4.175391731,1.917556873,2.172746443,-4.090303316,0,0,0,0,0,0
0.14551428705255418,-4.014644814,-4.160252702,1.934565264,2.152883495,-4.087448758,0,0,0,0,0,0
0.088993371,-4.052003279,-4.141077885,1.981504954,2.115035628,-4.096540582,0,0,0,0,0,0
0.05825831,-4.100180764,-4.158475778,2.020961227,2.108367044,-4.129328271,0,0,0,0,0,0
0.043434954,-4.126986249,-4.170474694,2.041775647,2.106954824,-4.148730472,0,0,0,0,0,0
0.013089299524779371,-4.098077083,-4.111236546,2.042493892,2.062162923,-4.104656814,0,0,0,0,0,0
0.014658005839931243,-4.054814016,-4.069559211,2.020078005,2.042108609,-4.062186614,0,0,0,0,0,0
0.056365143,-3.978334246,-4.034788053,1.960984552,2.045576598,-4.00656115,0,0,0,0,0,0
0.078867317,-3.892707146,-3.971693589,1.906919914,2.025280453,-3.932200367,0,0,0,0,0,0
0.084434389,-3.826382186,-3.910951407,1.870973899,1.997692898,-3.868666796,0,0,0,0,0,0
0.08486281,-3.755420297,-3.840370004,1.835278743,1.962616407,-3.797895151,0,0,0,0,0,0
0.011124005917828063,-3.711901701,-3.723110046,1.850388847,1.867117026,-3.717505873,0,0,0,0,0,0
-0.141330684,-3.733164372,-3.591921289,1.937247528,1.725295303,-3.662542831,0,0,0,0,0,0
-0.320770513,-3.786127485,-3.465432343,2.053448999,1.572330915,-3.625779914,0,0,0,0,0,0
-0.50505266,-3.827393398,-3.322403529,2.166223029,1.408675434,-3.574898463,0,0,0,0,0,0
-0.672757214,-3.854803175,-3.182109134,2.263780195,1.25467596,-3.518456155,0,0,0,0,0,0
-0.937212097,-3.952088508,-3.014973441,2.444650302,1.038880672,-3.483530975,0,0,0,0,0,0
-1.119420117,-4.005492567,-2.88614253,2.562456342,0.883361207,-3.445817549,0,0,0,0,0,0
