Lead I,Lead II,Lead III,aVR,aVL,aVF,V1',V2',V3',V4',V5',V6'
0.35045223685071264,-3.416086936,-3.766538506,1.53281735,2.058495372,-3.591312721,0,0,0,0,0,0
0.3863697186233949,-3.374318172,-3.760767947,1.493974226,2.073568833,-3.567543059,0,0,0,0,0,0
0.3945532189811336,-3.346908889,-3.741502455,1.476177835,2.068027837,-3.544205672,0,0,0,0,0,0
0.34423014960619136,-3.316191958,-3.660454875,1.485980904,2.002342512,-3.488323416,0,0,0,0,0,0
0.33742251639249904,-3.339117472,-3.676596754,1.500847478,2.007009635,-3.507857113,0,0,0,0,0,0
0.35159224821957746,-3.410514868,-3.762193935,1.52946131,2.056893092,-3.586354402,0,0,0,0,0,0
0.3299550282834538,-3.430050026,-3.760086662,1.550047499,2.045020845,-3.595068344,0,0,0,0,0,0
0.32110188660873684,-3.433046742,-3.754210477,1.555972428,2.037656182,-3.593628609,0,0,0,0,0,0
0.34710096360077114,-3.398138922,-3.745315925,1.525518979,2.046208445,-3.571727424,0,0,0,0,0,0
0.36507537963684894,-3.35394852,-3.719106566,1.49443657,2.042090973,-3.536527543,0,0,0,0,0,0
0.3735133319525932,-3.379022374,-3.752611641,1.502754521,2.063062487,-3.565817008,0,0,0,0,0,0
0.37338444139942345,-3.351369997,-3.724840817,1.488992778,2.049112629,-3.538105407,0,0,0,0,0,0
0.32454241123481004,-3.323724358,-3.648320268,1.499590973,1.98643134,-3.486022313,0,0,0,0,0,0
0.3215716669330178,-3.335504373,-3.657156242,1.506966353,1.989363954,-3.496330308,0,0,0,0,0,0
0.3336508487085615,-3.347643713,-3.681411383,1.506996432,2.007531116,-3.514527548,0,0,0,0,0,0
0.3221928771416304,-3.382662853,-3.7049124,1.530234988,2.013552638,-3.543787627,0,0,0,0,0,0
0.28013748762438434,-3.367343064,-3.647505125,1.543602788,1.963821306,-3.507424095,0,0,0,0,0,0
0.27667555632203766,-3.301145336,-3.577874561,1.51223489,1.927275059,-3.439509949,0,0,0,0,0,0
0.32912727760537636,-3.268700326,-3.597897964,1.469786524,1.963512621,-3.433299145,0,0,0,0,0,0
0.35949334116760623,-3.246373403,-3.605957327,1.443440031,1.982725334,-3.426165365,0,0,0,0,0,0
0.34584514997401494,-3.246272521,-3.59219014,1.450213686,1.969017645,-3.419231331,0,0,0,0,0,0
0.28355871465636695,-3.256865155,-3.540461526,1.48665322,1.91201012,-3.398663341,0,0,0,0,0,0
0.27870151667851023,-3.264109424,-3.542887548,1.492703954,1.910794532,-3.403498486,0,0,0,0,0,0
0.2632471857359661,-3.309355812,-3.572686596,1.523054313,1.917966891,-3.441021204,0,0,0,0,0,0
0.2616098485455527,-3.320846153,-3.582530304,1.529618152,1.922070076,-3.451688229,0,0,0,0,0,0
0.2925679780178082,-3.240907563,-3.533557748,1.474169792,1.913062863,-3.387232655,0,0,0,0,0,0
0.29110194468534306,-3.194529118,-3.485715841,1.451713587,1.888408893,-3.340122479,0,0,0,0,0,0
0.300335362,-3.204643835,-3.505055602,1.452154237,1.902695482,-3.354849719,0,0,0,0,0,0
0.30769863659151714,-3.192285275,-3.500092541,1.442293319,1.903895589,-3.346188908,0,0,0,0,0,0
0.2869722964012462,-3.190547668,-3.477618619,1.451787686,1.882295458,-3.334083143,0,0,0,0,0,0
0.2652500276214928,-3.19866907,-3.464006348,1.466709521,1.864628188,-3.331337709,0,0,0,0,0,0
0.284717519,-3.190426401,-3.475233327,1.452854441,1.879975423,-3.332829864,0,0,0,0,0,0
0.29383134305057296,-3.198730026,-3.492622715,1.452449341,1.893227029,-3.345676371,0,0,0,0,0,0
0.2604109079712077,-3.193145023,-3.453596905,1.466367058,1.857003906,-3.323370964,0,0,0,0,0,0
0.23712454550488893,-3.148938049,-3.386169921,1.455906752,1.811647233,-3.267553985,0,0,0,0,0,0
0.2654364333101304,-3.145499805,-3.411028809,1.440031686,1.838232621,-3.278264307,0,0,0,0,0,0
0.3026390598361357,-3.157933929,-3.460602589,1.427647435,1.881620824,-3.309268259,0,0,0,0,0,0
0.31793106575848157,-3.139653591,-3.457642272,1.410861263,1.887786669,-3.298647931,0,0,0,0,0,0
0.3086936727692789,-3.12219985,-3.431009716,1.406753089,1.869851694,-3.276604783,0,0,0,0,0,0
0.27993060002030723,-3.136686168,-3.416709551,1.428377784,1.848320076,-3.27669786,0,0,0,0,0,0
0.27306320779481913,-3.166659696,-3.439789527,1.446798244,1.856426368,-3.303224612,0,0,0,0,0,0
0.31448596564029385,-3.173405478,-3.487978722,1.429459756,1.901232344,-3.3306921,0,0,0,0,0,0
0.2604229824269756,-3.183412396,-3.44391787,1.461494707,1.852170426,-3.313665133,0,0,0,0,0,0
0.19175692494718022,-3.161791309,-3.35361382,1.485017192,1.772685373,-3.257702564,0,0,0,0,0,0
0.22539417224470543,-3.137608745,-3.363108373,1.456107286,1.794251272,-3.250358559,0,0,0,0,0,0
0.22896125779236068,-3.160348066,-3.389407041,1.465693404,1.80918415,-3.274877554,0,0,0,0,0,0
0.22430016076194054,-3.158847767,-3.383229623,1.467273803,1.803764892,-3.271038695,0,0,0,0,0,0
0.24048231399576103,-3.178066946,-3.418622516,1.468792316,1.829552415,-3.298344731,0,0,0,0,0,0
0.24191174449314834,-3.243826859,-3.485796073,1.500957557,1.863853909,-3.364811466,0,0,0,0,0,0
0.24593984852874956,-3.283256269,-3.529268789,1.51865821,1.887604319,-3.406262529,0,0,0,0,0,0
0.22081664235183576,-3.252280843,-3.47317174,1.5157321,1.846994191,-3.362726292,0,0,0,0,0,0
0.19775284472736093,-3.230390861,-3.428213999,1.516319008,1.812983422,-3.32930243,0,0,0,0,0,0
0.23829131666913636,-3.232852578,-3.471222209,1.497280631,1.854756763,-3.352037394,0,0,0,0,0,0
0.2557638605466495,-3.252803279,-3.508634831,1.498519709,1.882199346,-3.380719055,0,0,0,0,0,0
0.2581601074516702,-3.276591903,-3.534841528,1.509215898,1.896500818,-3.405716716,0,0,0,0,0,0
0.2646116446167893,-3.311763871,-3.576454662,1.523576113,1.920533153,-3.444109266,0,0,0,0,0,0
0.25796876319136813,-3.367551828,-3.625564595,1.554791533,1.941766679,-3.496558212,0,0,0,0,0,0
0.2537582120617626,-3.401159862,-3.654969918,1.573700825,1.954364065,-3.52806489,0,0,0,0,0,0
0.2641278604434613,-3.405590602,-3.669756786,1.570731371,1.966942323,-3.537673694,0,0,0,0,0,0
0.2822492563750914,-3.395628644,-3.677922489,1.556689694,1.980085873,-3.536775567,0,0,0,0,0,0
0.2994820650445926,-3.388765505,-3.688318214,1.54464172,1.99390014,-3.53854186,0,0,0,0,0,0
0.31370927676886307,-3.400475758,-3.714229962,1.543383241,2.01396962,-3.55735286,0,0,0,0,0,0
0.3292050385210992,-3.409572268,-3.738830975,1.540183615,2.034018007,-3.574201621,0,0,0,0,0,0
0.3524746824203924,-3.432970135,-3.785524175,1.540247726,2.068999429,-3.609247155,0,0,0,0,0,0
0.3677645672640025,-3.473989151,-3.841827334,1.553112292,2.104795951,-3.657908242,0,0,0,0,0,0
0.3783908449281695,-3.537676401,-3.916135194,1.579642778,2.147263019,-3.726905797,0,0,0,0,0,0
0.3820975946793294,-3.55022092,-3.932388248,1.584061663,2.157242922,-3.741304584,0,0,0,0,0,0
0.3735887607165984,-3.503778791,-3.87745749,1.565095015,2.125523125,-3.69061814,0,0,0,0,0,0
0.367635175,-3.485732145,-3.853442081,1.559048485,2.110538628,-3.669587113,0,0,0,0,0,0
0.339765403,-3.484557123,-3.824394144,1.57239586,2.082079773,-3.654475633,0,0,0,0,0,0
0.31365718189176595,-3.496059229,-3.809785462,1.591201024,2.061721322,-3.652922346,0,0,0,0,0,0
0.31800306683667434,-3.536180564,-3.854254606,1.609088748,2.086128837,-3.695217585,0,0,0,0,0,0
0.357771327,-3.556540783,-3.914414815,1.599384728,2.136093071,-3.735477799,0,0,0,0,0,0
0.3703783200720414,-3.578388358,-3.948859898,1.604005019,2.159619109,-3.763624128,0,0,0,0,0,0
0.3765685578649131,-3.609339125,-3.985979869,1.616385284,2.181274213,-3.797659497,0,0,0,0,0,0
0.42583212889631067,-3.569976732,-3.995914185,1.572072302,2.210873157,-3.782945459,0,0,0,0,0,0
0.42785313262911373,-3.549859605,-3.977810899,1.561003236,2.202832016,-3.763835252,0,0,0,0,0,0
0.39473155180512787,-3.54796032,-3.942755805,1.576614384,2.168743679,-3.745358063,0,0,0,0,0,0
0.4338982815453986,-3.528466107,-3.962434924,1.547283913,2.198166603,-3.745450515,0,0,0,0,0,0
0.4738345402073809,-3.527465778,-4.001364077,1.526815619,2.237599308,-3.764414927,0,0,0,0,0,0
0.47202157230023395,-3.550836543,-4.022917503,1.539407485,2.247469537,-3.786877023,0,0,0,0,0,0
0.4574185066708956,-3.591871418,-4.049309258,1.567226456,2.253363882,-3.820590338,0,0,0,0,0,0
0.4324040786434085,-3.632123928,-4.064573207,1.599859925,2.248488643,-3.848348568,0,0,0,0,0,0
0.41260598183462976,-3.595085633,-4.007768791,1.591239826,2.210187386,-3.801427212,0,0,0,0,0,0
0.4348346045214067,-3.55064421,-3.985558354,1.557904803,2.210196479,-3.768101282,0,0,0,0,0,0
0.4320340462448474,-3.535133286,-3.96725194,1.55154962,2.199642993,-3.751192613,0,0,0,0,0,0
0.413217348,-3.533782693,-3.947089344,1.560282672,2.180153346,-3.740436019,0,0,0,0,0,0
0.44343747158677543,-3.544905196,-3.988399628,1.550733862,2.21591855,-3.766652412,0,0,0,0,0,0
0.45481347282688633,-3.557063406,-4.01193554,1.551124967,2.233374506,-3.784499473,0,0,0,0,0,0
0.4410371429605606,-3.580621846,-4.021736953,1.569792351,2.231387048,-3.801179399,0,0,0,0,0,0
0.44367547504014293,-3.609616188,-4.053345169,1.582970356,2.248510322,-3.831480678,0,0,0,0,0,0
0.4224719816249517,-3.591424588,-4.013981582,1.584476303,2.218226782,-3.802703085,0,0,0,0,0,0
0.408489901,-3.556590606,-3.965210995,1.574050352,2.186850448,-3.760900801,0,0,0,0,0,0
0.4234696287409875,-3.557378088,-3.980932194,1.56695423,2.202200911,-3.769155141,0,0,0,0,0,0
0.4339703057847271,-3.553825106,-3.987823562,1.5599274,2.210896934,-3.770824334,0,0,0,0,0,0
0.4524159017500481,-3.542356326,-3.994852393,1.544970212,2.223634147,-3.768604359,0,0,0,0,0,0
0.4632275742841074,-3.549576596,-4.012936742,1.543174511,2.238082158,-3.781256669,0,0,0,0,0,0
0.46385816090529575,-3.571452779,-4.035416513,1.553797309,2.249637337,-3.803434646,0,0,0,0,0,0
0.4798657107337284,-3.601871031,-4.081811193,1.56100266,2.280838452,-3.841841112,0,0,0,0,0,0
0.48401791374327274,-3.609258624,-4.093365628,1.562620355,2.288691771,-3.851312126,0,0,0,0,0,0
0.4692522013351303,-3.569561544,-4.038911053,1.550154671,2.254081627,-3.804236298,0,0,0,0,0,0
0.45797156598852073,-3.533143322,-3.991185169,1.537585878,2.224578368,-3.762164246,0,0,0,0,0,0
0.41356609860785204,-3.518816867,-3.932419192,1.552625384,2.172992645,-3.725618029,0,0,0,0,0,0
0.3913612530901756,-3.524376059,-3.915806165,1.566507403,2.153583709,-3.720091112,0,0,0,0,0,0
0.4362158114451778,-3.535304383,-3.971657281,1.549544286,2.203936546,-3.753480832,0,0,0,0,0,0
0.4436836757918734,-3.543585266,-3.987378471,1.549950795,2.215531074,-3.765481869,0,0,0,0,0,0
0.4329324313008996,-3.56245762,-3.995460823,1.564762594,2.214196627,-3.778959222,0,0,0,0,0,0
0.4642299544511381,-3.58049494,-4.044821707,1.558132493,2.254525831,-3.812658323,0,0,0,0,0,0
0.47090623411474153,-3.570291062,-4.04127212,1.549692414,2.256089177,-3.805781591,0,0,0,0,0,0
0.4578953075506253,-3.540474524,-3.998424759,1.541289608,2.228160034,-3.769449642,0,0,0,0,0,0
0.4779906757151656,-3.524556043,-4.00262109,1.523282684,2.240305883,-3.763588566,0,0,0,0,0,0
0.4873293864796048,-3.524273837,-4.011691125,1.518472225,2.249510256,-3.767982481,0,0,0,0,0,0
0.473933976,-3.516115948,-3.990126816,1.521090986,2.232030396,-3.753121382,0,0,0,0,0,0
0.4684830783495796,-3.508313245,-3.976869865,1.519915083,2.222676472,-3.742591555,0,0,0,0,0,0
0.45965679860646896,-3.518670203,-3.978379901,1.529506702,2.21901835,-3.748525052,0,0,0,0,0,0
0.4295869682313948,-3.581865553,-4.011519156,1.576139293,2.220553062,-3.796692355,0,0,0,0,0,0
0.44827383582062075,-3.592105579,-4.040459118,1.571915872,2.244366477,-3.816282349,0,0,0,0,0,0
0.46605422558248405,-3.538263287,-4.004378998,1.536104531,2.235216612,-3.771321143,0,0,0,0,0,0
0.4733860297225264,-3.534248056,-4.007687003,1.530431013,2.240536517,-3.77096753,0,0,0,0,0,0
0.45913078574458155,-3.532517125,-3.991708973,1.53669317,2.22541988,-3.762113049,0,0,0,0,0,0
0.4177683828601082,-3.516660891,-3.934502549,1.549446254,2.176135466,-3.72558172,0,0,0,0,0,0
0.4307764287541098,-3.546282589,-3.977134169,1.55775308,2.203955299,-3.761708379,0,0,0,0,0,0
0.4492688676935153,-3.560099374,-4.009440285,1.555415253,2.229354576,-3.784769829,0,0,0,0,0,0
0.44514789548422606,-3.578047298,-4.023296399,1.566449701,2.234222147,-3.800671849,0,0,0,0,0,0
0.4500353693726782,-3.603579443,-4.053683271,1.576772037,2.25185932,-3.828631357,0,0,0,0,0,0
0.44575443153085964,-3.568140236,-4.013930448,1.561192902,2.22984244,-3.791035342,0,0,0,0,0,0
0.4251283451401817,-3.516734276,-3.941940793,1.545802965,2.183534569,-3.729337534,0,0,0,0,0,0
0.43772595914193363,-3.504187597,-3.941994509,1.533230819,2.189860234,-3.723091053,0,0,0,0,0,0
0.44738235275585053,-3.533541444,-3.98098084,1.543079546,2.214181596,-3.757261142,0,0,0,0,0,0
0.4485563145238937,-3.542468125,-3.991074384,1.546955905,2.219815349,-3.766771255,0,0,0,0,0,0
0.4448562777542008,-3.541848657,-3.986766051,1.548496189,2.215811164,-3.764307354,0,0,0,0,0,0
0.42875425298007613,-3.583932709,-4.012756848,1.577589228,2.220755551,-3.798344778,0,0,0,0,0,0
0.42214331746678196,-3.604033592,-4.026254975,1.590945137,2.224199146,-3.815144284,0,0,0,0,0,0
0.43938323936773493,-3.557038405,-3.996496617,1.558827583,2.217939928,-3.776767511,0,0,0,0,0,0
0.46390673234628926,-3.530989728,-3.994975172,1.533541498,2.229440952,-3.76298245,0,0,0,0,0,0
0.4905793818222343,-3.526289776,-4.016928635,1.517855197,2.253754008,-3.771609205,0,0,0,0,0,0
0.521889735,-3.507987968,-4.029943582,1.493049117,2.275916658,-3.768965775,0,0,0,0,0,0
0.5193525637435761,-3.498269466,-4.017731492,1.489458451,2.268542028,-3.758000479,0,0,0,0,0,0
0.48050392446040224,-3.526067093,-4.006672077,1.522781584,2.243588001,-3.766369585,0,0,0,0,0,0
0.4569378055644496,-3.574727528,-4.03174554,1.558894861,2.244341673,-3.803236534,0,0,0,0,0,0
0.4548153620035176,-3.61061555,-4.065511524,1.577900094,2.260163443,-3.838063537,0,0,0,0,0,0
0.4810060592978346,-3.585636901,-4.066765538,1.552315421,2.273885798,-3.826201219,0,0,0,0,0,0
0.5069735303901338,-3.533406794,-4.040490053,1.513216632,2.273731792,-3.786948424,0,0,0,0,0,0
0.5071653949644455,-3.552156132,-4.059382557,1.522495368,2.283273976,-3.805769344,0,0,0,0,0,0
0.45995398949882554,-3.555816036,-4.015812435,1.547931023,2.237883212,-3.785814235,0,0,0,0,0,0
0.4179106990843296,-3.515906131,-3.93388601,1.548997716,2.175898355,-3.724896071,0,0,0,0,0,0
0.41864264,-3.517318287,-3.936066287,1.549337824,2.177354463,-3.726692287,0,0,0,0,0,0
0.44541731631465287,-3.551401784,-3.996905425,1.552992234,2.221161371,-3.774153605,0,0,0,0,0,0
0.45406680924586434,-3.59223417,-4.046383152,1.569083681,2.250224981,-3.819308661,0,0,0,0,0,0
0.43490731905632124,-3.607907769,-4.042881634,1.586500225,2.238894477,-3.825394702,0,0,0,0,0,0
0.42339835862011194,-3.546988788,-3.970480113,1.561795215,2.196939236,-3.75873445,0,0,0,0,0,0
0.4452444263363384,-3.510507798,-3.955856326,1.532631686,2.200550376,-3.733182062,0,0,0,0,0,0
0.4512932966225825,-3.524368261,-3.975737484,1.536537482,2.21351539,-3.750052873,0,0,0,0,0,0
0.442945172,-3.543210427,-3.986237803,1.550132627,2.214591487,-3.764724115,0,0,0,0,0,0
0.4538013231956317,-3.543588554,-3.997462082,1.544893615,2.225631703,-3.770525318,0,0,0,0,0,0
0.46925060127677976,-3.542211624,-4.01154512,1.536480512,2.24039786,-3.776878372,0,0,0,0,0,0
0.48054791821055165,-3.571982354,-4.052581937,1.545717218,2.266564928,-3.812282145,0,0,0,0,0,0
0.4640729278870446,-3.609248752,-4.073391083,1.572587912,2.268732005,-3.841319917,0,0,0,0,0,0
0.4137140027444356,-3.588288771,-4.002104439,1.587287384,2.207909221,-3.795196605,0,0,0,0,0,0
0.39199492068355585,-3.559816615,-3.951879135,1.583910847,2.171937028,-3.755847875,0,0,0,0,0,0
0.42284624486138694,-3.557105548,-3.980007446,1.567129651,2.201426846,-3.768556497,0,0,0,0,0,0
0.4735000080716683,-3.544107577,-4.017709976,1.535303784,2.245604992,-3.780908776,0,0,0,0,0,0
0.45872455401081286,-3.541250714,-4.000105043,1.54126308,2.229414799,-3.770677879,0,0,0,0,0,0
0.4357143706719236,-3.545075252,-3.980854849,1.554680441,2.20828461,-3.76296505,0,0,0,0,0,0
0.4432139818928708,-3.573266303,-4.016543038,1.565026161,2.22987851,-3.794904671,0,0,0,0,0,0
0.430411645,-3.634276779,-4.064749366,1.601932567,2.247580506,-3.849513073,0,0,0,0,0,0
0.4175122358032988,-3.62751499,-4.045061757,1.605001377,2.231286996,-3.836288374,0,0,0,0,0,0
0.4541228288662139,-3.579689448,-4.033887069,1.56278331,2.244004949,-3.806788259,0,0,0,0,0,0
0.48550176885575663,-3.540994943,-4.026581467,1.527746587,2.256041618,-3.783788205,0,0,0,0,0,0
0.4622728275800164,-3.523295103,-3.985626753,1.530511138,2.22394979,-3.754460928,0,0,0,0,0,0
0.4717022732656864,-3.525277865,-3.997079227,1.526787796,2.23439075,-3.761178546,0,0,0,0,0,0
0.48467339650898567,-3.546260518,-4.031066867,1.530793561,2.257870132,-3.788663692,0,0,0,0,0,0
0.4731837547198793,-3.566402772,-4.039687755,1.546609508,2.256435755,-3.803045263,0,0,0,0,0,0
0.46238423221627256,-3.598282047,-4.060742053,1.567948907,2.261563142,-3.82951205,0,0,0,0,0,0
0.44232930401886567,-3.615514575,-4.057932131,1.586592636,2.250130717,-3.836723353,0,0,0,0,0,0
0.436264584,-3.576718533,-4.013046135,1.570226975,2.224655359,-3.794882334,0,0,0,0,0,0
0.4486420898594868,-3.537386288,-3.986102764,1.544372099,2.217372427,-3.761744526,0,0,0,0,0,0
0.4530431242220457,-3.533379175,-3.986495587,1.540168026,2.219769356,-3.759937381,0,0,0,0,0,0
0.4514072190538635,-3.540487908,-3.991961917,1.544540344,2.221684568,-3.766224912,0,0,0,0,0,0
0.4468071981073225,-3.521557876,-3.968457843,1.537375339,2.207632521,-3.745007859,0,0,0,0,0,0
0.4253310058379998,-3.517519079,-3.942911431,1.546094036,2.184121219,-3.730215255,0,0,0,0,0,0
0.41386376199175706,-3.559203104,-3.973123682,1.572669671,2.193493722,-3.766163393,0,0,0,0,0,0
0.4093831821860544,-3.631936626,-4.041397681,1.611276722,2.225390431,-3.836667153,0,0,0,0,0,0
0.41997806687612904,-3.628541449,-4.048587782,1.604281691,2.234282925,-3.838564616,0,0,0,0,0,0
0.4486402976400955,-3.573904664,-4.022599407,1.562632183,2.235619852,-3.798252036,0,0,0,0,0,0
0.46685450795040107,-3.549726548,-4.016674242,1.54143602,2.241764375,-3.783200395,0,0,0,0,0,0
0.4897358042606311,-3.559684977,-4.04951495,1.534974587,2.269625377,-3.804599964,0,0,0,0,0,0
0.5125168501267436,-3.565878511,-4.078443146,1.52668083,2.295479998,-3.822160828,0,0,0,0,0,0
0.49296757869180474,-3.59023743,-4.08327721,1.548634925,2.288122394,-3.83675732,0,0,0,0,0,0
0.4207668889443475,-3.59970105,-4.020557213,1.58946708,2.220662051,-3.810129131,0,0,0,0,0,0
0.4260172196281319,-3.614380889,-4.040491548,1.594181834,2.233254384,-3.827436218,0,0,0,0,0,0
0.4520891892557507,-3.611003558,-4.063170308,1.579457185,2.257629749,-3.837086933,0,0,0,0,0,0
0.4197779424761379,-3.565189393,-3.985028377,1.572705725,2.20240316,-3.775108885,0,0,0,0,0,0
0.4465692791097414,-3.532012934,-3.978679822,1.542721827,2.21262455,-3.755346378,0,0,0,0,0,0
0.42960078728476414,-3.525218853,-3.954908488,1.547809033,2.192254637,-3.740063671,0,0,0,0,0,0
0.4238678842565207,-3.533154542,-3.957098628,1.554643329,2.190483256,-3.745126585,0,0,0,0,0,0
0.47715656143357615,-3.529657926,-4.006895764,1.526250682,2.242026163,-3.768276845,0,0,0,0,0,0
0.45451980175884016,-3.561886769,-4.016464956,1.553683484,2.235492379,-3.789175862,0,0,0,0,0,0
0.41901865630883234,-3.616151214,-4.03521507,1.598566279,2.227116863,-3.825683142,0,0,0,0,0,0
0.4208534324060699,-3.629288445,-4.050217464,1.604217506,2.235535448,-3.839752954,0,0,0,0,0,0
0.43138918230759055,-3.596683367,-4.028192369,1.582647092,2.229790775,-3.812437868,0,0,0,0,0,0
0.44474211972175254,-3.565312236,-4.010151625,1.560285058,2.227446872,-3.787731931,0,0,0,0,0,0
0.46994580015156867,-3.575871191,-4.045885488,1.552962695,2.257915644,-3.810878339,0,0,0,0,0,0
0.4745339091661775,-3.575557293,-4.050204114,1.550511692,2.262369012,-3.812880704,0,0,0,0,0,0
0.4678588789348173,-3.55448637,-4.022424548,1.543313746,2.245141714,-3.788455459,0,0,0,0,0,0
0.4758975781183674,-3.564060086,-4.040001071,1.544081254,2.257949325,-3.802030579,0,0,0,0,0,0
0.457961557,-3.597138857,-4.055168741,1.56958865,2.256565149,-3.826153799,0,0,0,0,0,0
0.4572851531237263,-3.628458618,-4.085827571,1.585586733,2.271556362,-3.857143095,0,0,0,0,0,0
0.5255150831949601,-3.589325034,-4.114941271,1.531904975,2.320228177,-3.852133152,0,0,0,0,0,0
0.5683197367911994,-3.557372466,-4.125770723,1.494526365,2.34704523,-3.841571595,0,0,0,0,0,0
0.5534937616095604,-3.574694124,-4.128232167,1.510600181,2.340862964,-3.851463146,0,0,0,0,0,0
0.47082176056340874,-3.56996571,-4.04084052,1.549571975,2.255831141,-3.805403115,0,0,0,0,0,0
0.39782774811970073,-3.539479972,-3.937346444,1.570826112,2.167587096,-3.738413208,0,0,0,0,0,0
0.41236113512613565,-3.521117932,-3.933554776,1.554378399,2.172957955,-3.727336354,0,0,0,0,0,0
0.4425337411477968,-3.546320453,-3.988916664,1.551893356,2.215725203,-3.767618559,0,0,0,0,0,0
0.4552785828795174,-3.615229977,-4.070583248,1.579975697,2.262930915,-3.842906612,0,0,0,0,0,0
0.45731823250788817,-3.630001072,-4.087436662,1.58634142,2.272377447,-3.858718867,0,0,0,0,0,0
0.4495456413675063,-3.603779505,-4.053407248,1.577116932,2.251476445,-3.828593376,0,0,0,0,0,0
0.4484322696266912,-3.575816231,-4.024299953,1.563691981,2.236366111,-3.800058092,0,0,0,0,0,0
0.4786169146030592,-3.548564614,-4.027259568,1.53497385,2.252938241,-3.787912091,0,0,0,0,0,0
0.5028984535429719,-3.552723539,-4.055728936,1.524912543,2.279313695,-3.804226238,0,0,0,0,0,0
0.49242695539036957,-3.555092089,-4.047606304,1.531332567,2.27001663,-3.801349197,0,0,0,0,0,0
0.46057153106758814,-3.574622297,-4.035272274,1.557025383,2.247921903,-3.804947286,0,0,0,0,0,0
0.4346723458411656,-3.623777646,-4.058522858,1.59455265,2.246597602,-3.841150252,0,0,0,0,0,0
0.4128640523831236,-3.616918463,-4.029847027,1.602027205,2.22135554,-3.823382745,0,0,0,0,0,0
0.4458737547801584,-3.579217558,-4.025171353,1.566671902,2.235522554,-3.802194455,0,0,0,0,0,0
0.515714995,-3.57292799,-4.088728264,1.528606498,2.302221629,-3.830828127,0,0,0,0,0,0
0.501391234,-3.56429839,-4.065760392,1.531453578,2.283575813,-3.815029391,0,0,0,0,0,0
0.4890379662107411,-3.541398821,-4.030488516,1.526180428,2.259763241,-3.785943669,0,0,0,0,0,0
0.5026048096171377,-3.563864987,-4.06653554,1.530630089,2.284570175,-3.815200264,0,0,0,0,0,0
0.4443320155369896,-3.583677287,-4.028064877,1.569672636,2.236198446,-3.805871082,0,0,0,0,0,0
0.4180681216767399,-3.612256874,-4.030379494,1.597094376,2.224223808,-3.821318184,0,0,0,0,0,0
0.41295716270556304,-3.64526774,-4.058303861,1.616155289,2.235630512,-3.851785801,0,0,0,0,0,0
0.40331928522448507,-3.608782819,-4.012186581,1.602731767,2.207752933,-3.8104847,0,0,0,0,0,0
0.4043929218742431,-3.582300312,-3.986799676,1.588953695,2.195596299,-3.784549994,0,0,0,0,0,0
0.43945149734109434,-3.578496941,-4.018037328,1.569522722,2.228744413,-3.798267134,0,0,0,0,0,0
0.5023046461268604,-3.564347013,-4.066738998,1.531021184,2.284521822,-3.815543006,0,0,0,0,0,0
0.531454384,-3.573835661,-4.105349573,1.521190638,2.318401979,-3.839592617,0,0,0,0,0,0
0.5242119905588939,-3.583497654,-4.10779046,1.529642832,2.316001225,-3.845644057,0,0,0,0,0,0
0.5029597470767075,-3.596768669,-4.099832943,1.546904461,2.301396345,-3.848300806,0,0,0,0,0,0
0.4481288356432406,-3.649530733,-4.097766775,1.600700949,2.272947805,-3.873648754,0,0,0,0,0,0
0.4372930740801201,-3.649665169,-4.08706971,1.606186047,2.262181392,-3.86836744,0,0,0,0,0,0
0.4618385823787082,-3.58763213,-4.049539939,1.562896774,2.25568926,-3.818586034,0,0,0,0,0,0
0.4339791022316879,-3.559556616,-3.993609292,1.562788757,2.213794197,-3.776582954,0,0,0,0,0,0
0.4207486257617897,-3.573699089,-3.994521812,1.576475232,2.207635219,-3.784110451,0,0,0,0,0,0
0.44089548077029744,-3.543169762,-3.984135971,1.55113714,2.212515726,-3.763652867,0,0,0,0,0,0
0.46080671577215293,-3.529020509,-3.989912507,1.534106897,2.225359612,-3.759466508,0,0,0,0,0,0
0.4727267186009367,-3.58964652,-4.062462472,1.558459901,2.267594595,-3.826054496,0,0,0,0,0,0
0.44351652881274095,-3.660143259,-4.103696229,1.608313365,2.273606379,-3.881919744,0,0,0,0,0,0
0.4299867805975864,-3.664826618,-4.094842009,1.617419919,2.262414395,-3.879834314,0,0,0,0,0,0
0.4478566077609739,-3.600350319,-4.048273602,1.576246855,2.248065105,-3.824311961,0,0,0,0,0,0
0.43428958314215427,-3.563834233,-3.998233278,1.564772325,2.216261431,-3.781033755,0,0,0,0,0,0
0.4317834861382442,-3.575989513,-4.007883216,1.572103013,2.219833351,-3.791936364,0,0,0,0,0,0
0.4267386810916726,-3.58281713,-4.009651473,1.578039225,2.218195077,-3.796234302,0,0,0,0,0,0
0.42070223529622663,-3.578464066,-3.999258983,1.578880915,2.209980609,-3.788861524,0,0,0,0,0,0
0.40701725011309403,-3.620236194,-4.027309709,1.606609472,2.21716348,-3.823772951,0,0,0,0,0,0
0.38003752648212996,-3.683157051,-4.063246942,1.651559762,2.221642234,-3.873201996,0,0,0,0,0,0
0.36423084590403015,-3.709673304,-4.073961846,1.672721229,2.219096346,-3.891817575,0,0,0,0,0,0
0.3703077610847458,-3.673154389,-4.043552317,1.651423314,2.206930039,-3.858353353,0,0,0,0,0,0
0.3748451023877516,-3.631687954,-4.006619389,1.628421426,2.190732246,-3.819153671,0,0,0,0,0,0
0.35381222320436195,-3.643625071,-3.997498484,1.644906424,2.175655354,-3.820561778,0,0,0,0,0,0
0.3775464171467288,-3.646938057,-4.024534573,1.63469582,2.201040495,-3.835736315,0,0,0,0,0,0
0.44001346279436543,-3.628178632,-4.068250943,1.594082585,2.254132203,-3.848214788,0,0,0,0,0,0
0.39995624568986005,-3.624042281,-4.02408216,1.612043018,2.212019203,-3.82406222,0,0,0,0,0,0
0.33022408561857813,-3.648487946,-3.97878933,1.65913193,2.154506708,-3.813638638,0,0,0,0,0,0
0.35267684646731523,-3.6845053,-4.037246557,1.665914227,2.194961702,-3.860875929,0,0,0,0,0,0
0.34791138713875425,-3.688637163,-4.036651451,1.670362888,2.192281419,-3.862644307,0,0,0,0,0,0
0.3411931800105492,-3.658299912,-3.999598173,1.658553366,2.170395676,-3.828949042,0,0,0,0,0,0
0.3724158582155948,-3.635704581,-4.008178367,1.631644361,2.190297113,-3.821941474,0,0,0,0,0,0
0.3505105534744288,-3.633414884,-3.984014525,1.641452165,2.167262539,-3.808714704,0,0,0,0,0,0
0.3327874164251287,-3.629337078,-3.962225624,1.648274831,2.14750652,-3.795781351,0,0,0,0,0,0
0.32619216531334816,-3.641705724,-3.967967192,1.657756779,2.147079679,-3.804836458,0,0,0,0,0,0
0.32189032333260365,-3.661303448,-3.983284874,1.669706562,2.152587599,-3.822294161,0,0,0,0,0,0
0.28918517647845754,-3.714299046,-4.003553222,1.712556935,2.146369199,-3.858926134,0,0,0,0,0,0
0.24486306807410435,-3.747948428,-3.992866802,1.75154268,2.118864935,-3.870407615,0,0,0,0,0,0
0.25517491704581463,-3.679710957,-3.934949863,1.71226802,2.09506239,-3.80733041,0,0,0,0,0,0
0.2823063011703588,-3.611399205,-3.893800233,1.664546452,2.088053267,-3.752599719,0,0,0,0,0,0
0.3270628625531207,-3.600403166,-3.927571887,1.636670152,2.127317375,-3.763987527,0,0,0,0,0,0
0.3511372809443487,-3.57937542,-3.930620855,1.61411907,2.140879068,-3.754998138,0,0,0,0,0,0
0.34031606676623893,-3.609072581,-3.949464435,1.634378257,2.144890251,-3.779268508,0,0,0,0,0,0
0.3372056278453088,-3.65815639,-3.99542654,1.660475381,2.166316084,-3.826791465,0,0,0,0,0,0
0.3204460072936612,-3.664646284,-3.985192335,1.672100138,2.152819171,-3.82491931,0,0,0,0,0,0
0.3094793584117483,-3.692616256,-4.002157513,1.691568449,2.155818435,-3.847386884,0,0,0,0,0,0
0.32786686418162997,-3.661835545,-3.989751661,1.66698434,2.158809263,-3.825793603,0,0,0,0,0,0
0.35059375101960527,-3.600435674,-3.951092055,1.624920961,2.150842903,-3.775763865,0,0,0,0,0,0
0.37520800899780843,-3.572442767,-3.947720539,1.598617379,2.161464274,-3.760081653,0,0,0,0,0,0
0.3921476156910423,-3.554400917,-3.946628432,1.581126651,2.169388024,-3.750514675,0,0,0,0,0,0
0.39618306389868496,-3.57167213,-3.967941509,1.587744533,2.182062287,-3.76980682,0,0,0,0,0,0
0.40475082091719217,-3.577424844,-3.982232255,1.586337011,2.193491538,-3.779828549,0,0,0,0,0,0
0.39675336674139233,-3.59546234,-3.992292049,1.599354487,2.194522708,-3.793877194,0,0,0,0,0,0
0.41348443435946053,-3.643896553,-4.057482642,1.615206059,2.235483538,-3.850689597,0,0,0,0,0,0
0.46973884108011044,-3.626679793,-4.096494711,1.578470476,2.283116776,-3.861587252,0,0,0,0,0,0
0.5148751775242979,-3.573051365,-4.08801082,1.529088094,2.301442999,-3.830531092,0,0,0,0,0,0
0.5201399773146625,-3.559121593,-4.079355324,1.519490808,2.299747651,-3.819238459,0,0,0,0,0,0
0.46752340383948443,-3.560463153,-4.028055194,1.546469874,2.247789299,-3.794259173,0,0,0,0,0,0
0.39024324774992736,-3.57681693,-3.96714056,1.593286841,2.178691904,-3.771978745,0,0,0,0,0,0
0.3931515971360374,-3.588715012,-3.981945899,1.597781708,2.187548748,-3.785330456,0,0,0,0,0,0
0.4316646475683713,-3.623168877,-4.054911445,1.595752115,2.243288046,-3.839040161,0,0,0,0,0,0
0.4197626360616272,-3.666976359,-4.086815007,1.623606862,2.253288821,-3.876895683,0,0,0,0,0,0
0.41699343994069676,-3.65345007,-4.070480151,1.618228315,2.243736796,-3.861965111,0,0,0,0,0,0
0.45532900105662544,-3.61026738,-4.065670724,1.57746919,2.260499863,-3.837969052,0,0,0,0,0,0
0.4716811802483201,-3.595261711,-4.0670403,1.561790266,2.26936074,-3.831151006,0,0,0,0,0,0
0.4569418719544923,-3.595329622,-4.052356313,1.569193875,2.254649093,-3.823842968,0,0,0,0,0,0
0.47949032208622155,-3.58231502,-4.061872361,1.551412349,2.270681342,-3.82209369,0,0,0,0,0,0
0.49071040263692567,-3.588547817,-4.079334146,1.548918707,2.285022275,-3.833940982,0,0,0,0,0,0
0.5048665821649467,-3.592553075,-4.097510127,1.543843247,2.301188355,-3.845031601,0,0,0,0,0,0
0.5000108030529109,-3.61841087,-4.118489718,1.559200033,2.30925026,-3.868450294,0,0,0,0,0,0
0.45802387983123327,-3.64275212,-4.100827495,1.59236412,2.279425687,-3.871789808,0,0,0,0,0,0
0.42876534295164587,-3.617919317,-4.046757202,1.594576987,2.237761272,-3.832338259,0,0,0,0,0,0
0.432742174,-3.598828462,-4.031660093,1.583043144,2.232201134,-3.815244278,0,0,0,0,0,0
0.4708470386536956,-3.589524495,-4.060453923,1.559338728,2.265650481,-3.824989209,0,0,0,0,0,0
0.47619358275064627,-3.583127595,-4.059397353,1.553467006,2.267795468,-3.821262474,0,0,0,0,0,0
0.48061952933924323,-3.579661007,-4.060377841,1.549520739,2.270498685,-3.820019424,0,0,0,0,0,0
0.47985695342272844,-3.581196671,-4.061149481,1.550669859,2.270503217,-3.821173076,0,0,0,0,0,0
0.455398625,-3.606379045,-4.061851482,1.57549021,2.258625053,-3.834115263,0,0,0,0,0,0
0.4447520508872105,-3.634262531,-4.079121735,1.59475524,2.261936893,-3.856692133,0,0,0,0,0,0
0.4681602115467072,-3.616993707,-4.085238348,1.574416748,2.27669928,-3.851116027,0,0,0,0,0,0
0.482970003,-3.589280731,-4.072317207,1.553155364,2.277643605,-3.830798969,0,0,0,0,0,0
0.470233795,-3.568756603,-4.03906174,1.549261404,2.254647767,-3.803909171,0,0,0,0,0,0
0.46719008311834564,-3.576283701,-4.043541087,1.554546809,2.255365585,-3.809912394,0,0,0,0,0,0
0.49291892010444266,-3.588039614,-4.081047836,1.547560347,2.286983378,-3.834543725,0,0,0,0,0,0
0.4880749447772187,-3.593829351,-4.0819606,1.552877203,2.285017772,-3.837894975,0,0,0,0,0,0
0.4552254946182421,-3.628604625,-4.083859131,1.586689565,2.269542313,-3.856231878,0,0,0,0,0,0
0.4476619161941977,-3.678327107,-4.126077871,1.615332596,2.286869894,-3.902202489,0,0,0,0,0,0
0.4438147854529533,-3.696764068,-4.140686993,1.626474641,2.292250889,-3.918725531,0,0,0,0,0,0
0.4491810456460653,-3.662354194,-4.111644568,1.606586574,2.280412807,-3.886999381,0,0,0,0,0,0
0.43345890255180347,-3.641375508,-4.074902515,1.603958303,2.254180709,-3.858139012,0,0,0,0,0,0
0.43349037668060236,-3.641805549,-4.075384033,1.604157586,2.254437205,-3.858594791,0,0,0,0,0,0
0.4369278539696731,-3.624685424,-4.061713339,1.593878785,2.249320596,-3.843199381,0,0,0,0,0,0
0.4489091860430585,-3.609034832,-4.058026627,1.580062823,2.253467906,-3.833530729,0,0,0,0,0,0
0.47424701489014903,-3.587091711,-4.061412873,1.556422348,2.267829944,-3.824252292,0,0,0,0,0,0
0.4371958442069656,-3.554828278,-3.99207985,1.558816217,2.214637847,-3.773454064,0,0,0,0,0,0
0.4145728704118513,-3.510750386,-3.92541269,1.548088758,2.16999278,-3.718081538,0,0,0,0,0,0
0.4254905987878839,-3.406606236,-3.832179367,1.490557818,2.128834983,-3.619392801,0,0,0,0,0,0
0.3742243495946181,-3.31944472,-3.693753033,1.472610185,2.033988691,-3.506598876,0,0,0,0,0,0
0.3189609896965557,-3.290342813,-3.609428162,1.485690911,1.964194576,-3.449885487,0,0,0,0,0,0
0.18401166568550942,-3.306004938,-3.490112284,1.560996636,1.837061975,-3.398058611,0,0,0,0,0,0
-0.041277602,-3.382913545,-3.341715779,1.712095573,1.650219089,-3.362314662,0,0,0,0,0,0
-0.305365666,-3.474569802,-3.169292243,1.889967734,1.431963289,-3.321931023,0,0,0,0,0,0
-0.620676762,-3.595355862,-2.97476133,2.108016312,1.177042284,-3.285058596,0,0,0,0,0,0
-0.825342487,-3.71946509,-2.89419193,2.272403789,1.034424721,-3.30682851,0,0,0,0,0,0
-0.815354619,-3.63851921,-2.823213101,2.226936914,1.003929241,-3.230866156,0,0,0,0,0,0
-0.71187518,-3.449059415,-2.737246105,2.080467298,1.012685462,-3.09315276,0,0,0,0,0,0
-0.56909853,-3.339940637,-2.770904179,1.954519584,1.100902825,-3.055422408,0,0,0,0,0,0
-0.384461299,-3.282685075,-2.898307162,1.833573187,1.256922932,-3.090496119,0,0,0,0,0,0
-0.161751509,-3.221821886,-3.060189617,1.691786697,1.449219054,-3.141005751,0,0,0,0,0,0
0.042294382,-3.139098207,-3.181511967,1.548401913,1.611903175,-3.160305087,0,0,0,0,0,0
0.20564433168407975,-3.102056502,-3.3077891,1.448206085,1.756716716,-3.204922801,0,0,0,0,0,0
0.36871776,-3.166873792,-3.535678392,1.399078016,1.952198076,-3.351276092,0,0,0,0,0,0
0.4777117593804401,-3.265293375,-3.743087477,1.393790808,2.110399618,-3.504190426,0,0,0,0,0,0
0.5910980980514305,-3.338470014,-3.9296425,1.373685958,2.260370299,-3.634056257,0,0,0,0,0,0
0.7386301615054642,-3.42886754,-4.167579049,1.345118689,2.453104605,-3.798223294,0,0,0,0,0,0
0.8319154895195539,-3.479100917,-4.311095828,1.323592714,2.571505659,-3.895098372,0,0,0,0,0,0
0.8878078235976257,-3.483881022,-4.371761936,1.298036599,2.62978488,-3.927821479,0,0,0,0,0,0
0.9104425684117438,-3.536891358,-4.447417844,1.313224395,2.678930206,-3.992154601,0,0,0,0,0,0
0.884533544,-3.630025075,-4.514652658,1.372745766,2.699593101,-4.072338867,0,0,0,0,0,0
0.841675449,-3.713358993,-4.555107361,1.435841772,2.698391405,-4.134233177,0,0,0,0,0,0
0.8139089040785398,-3.767691744,-4.581666001,1.47689142,2.697787452,-4.174678872,0,0,0,0,0,0
0.8029550934697796,-3.75578002,-4.558805791,1.476412463,2.680880442,-4.157292905,0,0,0,0,0,0
0.7826571517843887,-3.698863545,-4.481606134,1.458103197,2.632131643,-4.09023484,0,0,0,0,0,0
0.7519398204119797,-3.665470509,-4.417527968,1.456765344,2.584733894,-4.041499238,0,0,0,0,0,0
0.742571299,-3.652193695,-4.39487825,1.454811198,2.568724774,-4.023535972,0,0,0,0,0,0
0.7340783702360362,-3.638016066,-4.372159161,1.451968848,2.553118766,-4.005087614,0,0,0,0,0,0
0.7175395576550767,-3.601898647,-4.31948673,1.442179545,2.518513144,-3.960692688,0,0,0,0,0,0
0.6166355281027563,-3.592926876,-4.20962698,1.488145674,2.413131254,-3.901276928,0,0,0,0,0,0
0.534604042,-3.602860831,-4.137530001,1.534128394,2.336067022,-3.870195416,0,0,0,0,0,0
0.5360465928055755,-3.562356149,-4.098476706,1.513154778,2.317261649,-3.830416428,0,0,0,0,0,0
0.5421576695022841,-3.521709786,-4.0639514,1.489776058,2.303054535,-3.792830593,0,0,0,0,0,0
0.5329559638183071,-3.512810909,-4.045849067,1.489927473,2.289402515,-3.779329988,0,0,0,0,0,0
0.5156256127217322,-3.515645041,-4.031347246,1.500009714,2.273486429,-3.773496143,0,0,0,0,0,0
0.5069328368510642,-3.529767792,-4.036761953,1.511417478,2.271847395,-3.783264873,0,0,0,0,0,0
0.49237369123488056,-3.537949365,-4.030365462,1.522787837,2.261369576,-3.784157413,0,0,0,0,0,0
0.4788465506733179,-3.56391834,-4.042837188,1.542535895,2.260841869,-3.803377764,0,0,0,0,0,0
0.47242445946413825,-3.587075539,-4.059606931,1.55732554,2.266015695,-3.823341235,0,0,0,0,0,0
0.4609735344340198,-3.571466306,-4.032473815,1.555246386,2.246723675,-3.801970061,0,0,0,0,0,0
0.4783117071395332,-3.539123098,-4.017468572,1.530405695,2.24789014,-3.778295835,0,0,0,0,0,0
0.4875376742549534,-3.523851989,-4.011464038,1.518157158,2.249500856,-3.767658014,0,0,0,0,0,0
0.40936044287696755,-3.544986441,-3.954411427,1.567812999,2.181885935,-3.749698934,0,0,0,0,0,0
0.39538802827732267,-3.538651403,-3.934160998,1.571631687,2.164774513,-3.7364062,0,0,0,0,0,0
0.4509803960030599,-3.528810576,-3.979891792,1.53891509,2.215436094,-3.754351184,0,0,0,0,0,0
0.4391277908782643,-3.557778276,-3.996940188,1.559325243,2.218033989,-3.777359232,0,0,0,0,0,0
0.4128240005765035,-3.573534367,-3.986440628,1.580355183,2.199632314,-3.779987498,0,0,0,0,0,0
0.4024865102751636,-3.581235586,-3.983793452,1.589374538,2.193139981,-3.782514519,0,0,0,0,0,0
0.42877394950322956,-3.557549905,-3.986355431,1.564387978,2.20756469,-3.771952668,0,0,0,0,0,0
0.46029376638875574,-3.538163291,-3.998528036,1.538934762,2.229410901,-3.768345664,0,0,0,0,0,0
0.43270376150136963,-3.543071949,-3.975870339,1.555184094,2.20428705,-3.759471144,0,0,0,0,0,0
0.46742028356767507,-3.532141929,-3.999669185,1.532360823,2.233544734,-3.765905557,0,0,0,0,0,0
0.4685106223148547,-3.552084843,-4.020654099,1.54178711,2.244582361,-3.786369471,0,0,0,0,0,0
0.4392799434001684,-3.556704785,-3.996028366,1.558712421,2.217654155,-3.776366576,0,0,0,0,0,0
0.4400811576402042,-3.5520538,-3.99221403,1.555986321,2.216147594,-3.772133915,0,0,0,0,0,0
0.4185612709887843,-3.588416725,-4.007066698,1.584927727,2.212813985,-3.797741712,0,0,0,0,0,0
0.40989493220769907,-3.56272919,-3.972713305,1.576417129,2.191304119,-3.767721248,0,0,0,0,0,0
0.4261357896231631,-3.520389187,-3.946624482,1.547126699,2.186380136,-3.733506834,0,0,0,0,0,0
0.44851747436348116,-3.51669567,-3.965286328,1.534089098,2.206901901,-3.740990999,0,0,0,0,0,0
0.4679650587111947,-3.513394269,-3.98139908,1.522714605,2.224682069,-3.747396675,0,0,0,0,0,0
0.48537794331129197,-3.525467897,-4.010917189,1.520044977,2.248147566,-3.768192543,0,0,0,0,0,0
0.5281920473774617,-3.534271065,-4.062596189,1.503039509,2.295394118,-3.798433627,0,0,0,0,0,0
0.4973500367604542,-3.548187726,-4.045619653,1.525418845,2.271484845,-3.796903689,0,0,0,0,0,0
0.3937088492375594,-3.575684041,-3.969426174,1.590987596,2.181567511,-3.772555107,0,0,0,0,0,0
0.3308007899855406,-3.593865392,-3.924709401,1.631532301,2.127755095,-3.759287397,0,0,0,0,0,0
0.36168870619885785,-3.55308404,-3.91482937,1.595697667,2.138259038,-3.733956705,0,0,0,0,0,0
0.4200914283963138,-3.492757523,-3.91291548,1.536333047,2.166503454,-3.702836502,0,0,0,0,0,0
0.44624736151352223,-3.502538723,-3.948849976,1.528145681,2.197548669,-3.72569435,0,0,0,0,0,0
0.46625114723027644,-3.536767147,-4.003096979,1.535258,2.234674063,-3.769932063,0,0,0,0,0,0
0.4443680125538588,-3.527996652,-3.972453995,1.541814319,2.208411004,-3.750225323,0,0,0,0,0,0
0.4011391497263942,-3.5295505,-3.930747285,1.564205675,2.165943218,-3.730148893,0,0,0,0,0,0
0.38631549729946374,-3.569700569,-3.956081558,1.591692536,2.171198528,-3.762891063,0,0,0,0,0,0
0.3785414437531777,-3.592529016,-3.971159084,1.606993786,2.174850264,-3.78184405,0,0,0,0,0,0
0.3499261798352484,-3.557548312,-3.907544976,1.603811066,2.128735578,-3.732546644,0,0,0,0,0,0
0.37294543260896906,-3.526440622,-3.899461645,1.576747595,2.136203539,-3.712951134,0,0,0,0,0,0
0.39279893912200886,-3.520670705,-3.913530418,1.563935883,2.153164679,-3.717100562,0,0,0,0,0,0
0.3867635859517887,-3.510898283,-3.897726657,1.562067349,2.142245121,-3.70431247,0,0,0,0,0,0
0.40480813655387077,-3.484739383,-3.889644451,1.539965623,2.147226294,-3.687191917,0,0,0,0,0,0
0.3946507141394507,-3.484676516,-3.87940559,1.545012901,2.137028152,-3.682041053,0,0,0,0,0,0
0.3736512332374226,-3.534750741,-3.908479008,1.580549754,2.141065121,-3.721614875,0,0,0,0,0,0
0.3784609552329225,-3.586950228,-3.965502609,1.604244636,2.171981782,-3.776226418,0,0,0,0,0,0
0.3783547467200802,-3.551990672,-3.930457519,1.586817963,2.154406133,-3.741224096,0,0,0,0,0,0
0.3622517345910653,-3.502358389,-3.864686649,1.570053327,2.113469192,-3.683522519,0,0,0,0,0,0
0.37270246024371995,-3.487409054,-3.860171361,1.557353297,2.116436911,-3.673790208,0,0,0,0,0,0
0.4280028525152734,-3.477500021,-3.905582644,1.524748584,2.166792748,-3.691541332,0,0,0,0,0,0
0.3915746694018618,-3.475296398,-3.866937334,1.541860864,2.129256001,-3.671116866,0,0,0,0,0,0
0.36332617923094596,-3.456848985,-3.820212386,1.546761403,2.091769283,-3.638530685,0,0,0,0,0,0
0.3833997632537234,-3.484053226,-3.867537838,1.550326731,2.125468801,-3.675795532,0,0,0,0,0,0
0.3795792705038904,-3.535008252,-3.914706292,1.577714491,2.147142781,-3.724857272,0,0,0,0,0,0
0.38384916950470227,-3.511517181,-3.895451476,1.563834006,2.139650323,-3.703484328,0,0,0,0,0,0
0.3851314855901805,-3.45898585,-3.844196005,1.536927182,2.114663745,-3.651590928,0,0,0,0,0,0
0.40249334546491067,-3.423274946,-3.825839022,1.5103908,2.114166184,-3.624556984,0,0,0,0,0,0
0.4164073187669926,-3.433778673,-3.850260169,1.508685677,2.133333744,-3.642019421,0,0,0,0,0,0
0.3903850228531377,-3.448800931,-3.839289381,1.529207954,2.114837202,-3.644045156,0,0,0,0,0,0
0.38362577799186853,-3.4354126,-3.819146415,1.525893411,2.101386096,-3.627279507,0,0,0,0,0,0
0.3835169927301758,-3.447104516,-3.830666953,1.531793761,2.107091973,-3.638885734,0,0,0,0,0,0
0.3668524255307516,-3.482779022,-3.849691367,1.557963298,2.108271896,-3.666235195,0,0,0,0,0,0
0.3413667133311076,-3.493598057,-3.835074708,1.576115672,2.088220711,-3.664336382,0,0,0,0,0,0
0.34831690373621876,-3.452784192,-3.801187041,1.552233644,2.074751972,-3.626985616,0,0,0,0,0,0
0.4151754329593132,-3.40020653,-3.815445891,1.492515549,2.115310662,-3.60782621,0,0,0,0,0,0
0.42840898424459106,-3.380501295,-3.809011206,1.476046156,2.118710095,-3.594756251,0,0,0,0,0,0
0.40368554815466073,-3.395577966,-3.7993623,1.495946209,2.101523924,-3.597470133,0,0,0,0,0,0
0.36984749908659265,-3.405712886,-3.775639005,1.517932693,2.072743252,-3.590675945,0,0,0,0,0,0
0.33934411076324944,-3.420493262,-3.75990381,1.540574576,2.049623961,-3.590198536,0,0,0,0,0,0
0.32046483715009494,-3.45074014,-3.771270718,1.565137652,2.045867778,-3.611005429,0,0,0,0,0,0
0.2974974635292436,-3.486403506,-3.783989385,1.594453021,2.040743424,-3.635196446,0,0,0,0,0,0
0.326332156,-3.44387375,-3.770286608,1.558770797,2.048309382,-3.607080179,0,0,0,0,0,0
0.35832163232141334,-3.377082517,-3.73548766,1.509380443,2.046904646,-3.556285089,0,0,0,0,0,0
0.3754381037584046,-3.35653542,-3.732037388,1.490548658,2.053737746,-3.544286404,0,0,0,0,0,0
0.3928314677845075,-3.346156626,-3.739034753,1.476662579,2.065933111,-3.54259569,0,0,0,0,0,0
0.3607958837799621,-3.359910829,-3.720792634,1.499557472,2.040794259,-3.540351731,0,0,0,0,0,0
0.3085825851891637,-3.373113047,-3.681797447,1.532265231,1.995190016,-3.527455247,0,0,0,0,0,0
0.2998420724779958,-3.364834724,-3.664744264,1.532496326,1.982293168,-3.514789494,0,0,0,0,0,0
0.29038868764694825,-3.3914045,-3.681866942,1.550507906,1.986127815,-3.536635721,0,0,0,0,0,0
0.27502583190866997,-3.395026215,-3.670145137,1.560000191,1.972585485,-3.532585676,0,0,0,0,0,0
0.304302015,-3.342779476,-3.647149809,1.51923873,1.975725912,-3.494964642,0,0,0,0,0,0
0.32627599984828193,-3.308612462,-3.634954013,1.491168231,1.980615007,-3.471783238,0,0,0,0,0,0
0.33893491671248493,-3.288071403,-3.627087293,1.474568243,1.983011105,-3.457579348,0,0,0,0,0,0
0.350394043,-3.28426992,-3.634741303,1.466937939,1.992567673,-3.459505612,0,0,0,0,0,0
0.3230100606760661,-3.303136898,-3.626251812,1.490063419,1.974630936,-3.464694355,0,0,0,0,0,0
0.2999758506233031,-3.305919918,-3.605981025,1.502972034,1.952978438,-3.455950471,0,0,0,0,0,0
0.2812188360012421,-3.324453577,-3.60577634,1.52161737,1.943497588,-3.465114958,0,0,0,0,0,0
0.2868747637048973,-3.33116253,-3.618113728,1.522143883,1.952494246,-3.474638129,0,0,0,0,0,0
0.32124248320942295,-3.280615767,-3.601905875,1.479686642,1.961574179,-3.441260821,0,0,0,0,0,0
0.31244856640979085,-3.240458894,-3.552966947,1.464005164,1.932707757,-3.396712921,0,0,0,0,0,0
0.30665513231900227,-3.223989344,-3.530654665,1.458667106,1.918654899,-3.377322005,0,0,0,0,0,0
0.3332961792822669,-3.207938825,-3.541282138,1.437321323,1.937289158,-3.374610481,0,0,0,0,0,0
0.3587137053405838,-3.193137568,-3.551932472,1.417211931,1.955323089,-3.37253502,0,0,0,0,0,0
0.3447190651452132,-3.218016643,-3.562808752,1.436648789,1.953763909,-3.390412698,0,0,0,0,0,0
0.312757951,-3.249256663,-3.562100295,1.468249356,1.937429123,-3.405678479,0,0,0,0,0,0
0.27554284980050164,-3.253081376,-3.528720722,1.488769263,1.902131786,-3.390901049,0,0,0,0,0,0
0.2559417637355708,-3.200738355,-3.456773402,1.472398296,1.856357583,-3.328755879,0,0,0,0,0,0
0.26957492524291043,-3.156218642,-3.425874319,1.443321859,1.847724622,-3.291046481,0,0,0,0,0,0
0.29246744206687925,-3.142284579,-3.434814423,1.424908569,1.863640933,-3.288549501,0,0,0,0,0,0
0.291138369,-3.150315384,-3.441510705,1.429588508,1.866324537,-3.295913045,0,0,0,0,0,0
0.28981226881152367,-3.163970191,-3.453883108,1.437078961,1.871847688,-3.30892665,0,0,0,0,0,0
0.3027766472442237,-3.164559156,-3.467436963,1.430891254,1.885106805,-3.315998059,0,0,0,0,0,0
0.2929478404990415,-3.189820971,-3.48281959,1.448436565,1.887883715,-3.336320281,0,0,0,0,0,0
0.2800512346916716,-3.208624007,-3.488714749,1.464286386,1.884382992,-3.348669378,0,0,0,0,0,0
0.2507525419278506,-3.200292162,-3.451118616,1.47476981,1.850935579,-3.325705389,0,0,0,0,0,0
0.24517404973433884,-3.176424962,-3.421693086,1.465625456,1.833433568,-3.299059024,0,0,0,0,0,0
0.26390979137616705,-3.155307337,-3.419313798,1.445698773,1.841611795,-3.287310568,0,0,0,0,0,0
0.2957854799698728,-3.132636367,-3.428501144,1.418425443,1.862143312,-3.280568756,0,0,0,0,0,0
0.32112738187849205,-3.114491169,-3.435685719,1.396681893,1.878406551,-3.275088444,0,0,0,0,0,0
0.3126054277405656,-3.145976187,-3.458660227,1.416685379,1.885632827,-3.302318207,0,0,0,0,0,0
0.2766499779376473,-3.183455383,-3.460184604,1.453402703,1.868417291,-3.321819994,0,0,0,0,0,0
0.27936232757579027,-3.221315806,-3.500745393,1.470976739,1.89005386,-3.3610306,0,0,0,0,0,0
0.31758128210506725,-3.248221584,-3.565876679,1.465320151,1.941728981,-3.407049132,0,0,0,0,0,0
0.2435035789174193,-3.226482451,-3.470089996,1.491489436,1.856796788,-3.348286223,0,0,0,0,0,0
0.19119214647466917,-3.209156931,-3.400449547,1.508982392,1.795820847,-3.304803239,0,0,0,0,0,0
0.24140962122028958,-3.209777199,-3.451260371,1.484183789,1.846334996,-3.330518785,0,0,0,0,0,0
0.2553330824334855,-3.212204409,-3.46759028,1.478435663,1.861461681,-3.339897344,0,0,0,0,0,0
0.22146278510111583,-3.246478039,-3.467985831,1.512507627,1.844724308,-3.357231935,0,0,0,0,0,0
0.22542932443265712,-3.271090832,-3.496572362,1.522830754,1.861000843,-3.383831597,0,0,0,0,0,0
0.23966173707560487,-3.293445481,-3.533196964,1.526891872,1.88642935,-3.413321223,0,0,0,0,0,0
0.23336563533899804,-3.345833677,-3.579307644,1.556234021,1.906336639,-3.46257066,0,0,0,0,0,0
0.23937086084523526,-3.368322702,-3.607751838,1.564475921,1.92356135,-3.48803727,0,0,0,0,0,0
0.279558422,-3.369098101,-3.648697492,1.54476984,1.964127957,-3.508897797,0,0,0,0,0,0
0.29725002845420234,-3.358305674,-3.655640213,1.530527823,1.976445121,-3.506972944,0,0,0,0,0,0
0.29582553090978736,-3.351107198,-3.647013925,1.527640834,1.971419728,-3.499060561,0,0,0,0,0,0
0.3023567792700497,-3.381971457,-3.684423466,1.539807339,1.993390123,-3.533197462,0,0,0,0,0,0
0.3130832160808627,-3.385644262,-3.698843515,1.536280523,2.005963366,-3.542243889,0,0,0,0,0,0
0.324831118,-3.394991266,-3.719882391,1.535080074,2.022356754,-3.557436828,0,0,0,0,0,0
0.3401656301837351,-3.466384397,-3.806623556,1.563109384,2.073394593,-3.636503977,0,0,0,0,0,0
0.32726396971592786,-3.509736812,-3.83711623,1.591236421,2.0821901,-3.673426521,0,0,0,0,0,0
0.29997979947512626,-3.534517249,-3.834595487,1.617268725,2.067287643,-3.684556368,0,0,0,0,0,0
0.32324140598469236,-3.524454541,-3.847751351,1.600606567,2.085496379,-3.686102946,0,0,0,0,0,0
0.3593670342515713,-3.496386921,-3.855793355,1.568509943,2.107580195,-3.676090138,0,0,0,0,0,0
0.3662641876333212,-3.517485111,-3.883824623,1.575610462,2.125044405,-3.700654867,0,0,0,0,0,0
0.35782313339704747,-3.529948111,-3.887873139,1.586062489,2.122848136,-3.708910625,0,0,0,0,0,0
0.3475249495191376,-3.534909781,-3.882530292,1.593692416,2.115027621,-3.708720036,0,0,0,0,0,0
0.3434142392554651,-3.592769153,-3.936273425,1.624677457,2.139843832,-3.764521289,0,0,0,0,0,0
0.3559640927442205,-3.608968841,-3.965021572,1.626502374,2.160492832,-3.786995207,0,0,0,0,0,0
0.37969353781879567,-3.574763648,-3.954557996,1.597535055,2.167125767,-3.764660822,0,0,0,0,0,0
0.4205868284726533,-3.548167264,-3.968827805,1.563790218,2.194707317,-3.758497535,0,0,0,0,0,0
0.4373048759689978,-3.523943739,-3.961292458,1.543319431,2.199298667,-3.742618098,0,0,0,0,0,0
0.4622904872546996,-3.552477587,-4.014832313,1.54509355,2.2385614,-3.78365495,0,0,0,0,0,0
0.48319186578275974,-3.567861397,-4.051116544,1.542334765,2.267154205,-3.80948897,0,0,0,0,0,0
0.4450501071679759,-3.573208606,-4.018313382,1.564079249,2.231681744,-3.795760994,0,0,0,0,0,0
0.4341960030051896,-3.608757736,-4.04301893,1.587280867,2.238607466,-3.825888333,0,0,0,0,0,0
0.39310590911944926,-3.6477802,-4.040967557,1.627337145,2.217036733,-3.844373879,0,0,0,0,0,0
0.4059549478110369,-3.63410933,-4.040155205,1.614077191,2.223055076,-3.837132267,0,0,0,0,0,0
0.48087384043712134,-3.569825272,-4.050776999,1.544475716,2.26582542,-3.810301136,0,0,0,0,0,0
0.4641547921736261,-3.545847102,-4.010070385,1.540846155,2.237112589,-3.777958744,0,0,0,0,0,0
0.48602899619915674,-3.555877064,-4.041969899,1.534924034,2.263999448,-3.798923482,0,0,0,0,0,0
0.466335697,-3.562377653,-4.028799501,1.548020978,2.247567599,-3.795588577,0,0,0,0,0,0
0.40056708782114187,-3.581115723,-3.981786584,1.590274317,2.191176836,-3.781451153,0,0,0,0,0,0
0.4293096366665931,-3.588651767,-4.018032313,1.579671065,2.223670975,-3.80334204,0,0,0,0,0,0
0.4145533536963537,-3.625474097,-4.040094094,1.605460372,2.227323724,-3.832784096,0,0,0,0,0,0
0.39504341424777445,-3.634579661,-4.029714012,1.619768123,2.212378713,-3.832146837,0,0,0,0,0,0
0.4249436113559089,-3.605172968,-4.030224168,1.590114678,2.22758389,-3.817698568,0,0,0,0,0,0
0.40294225709475284,-3.576867524,-3.979898722,1.586962634,2.191420489,-3.778383123,0,0,0,0,0,0
0.3986067628319193,-3.551286406,-3.94998353,1.576339821,2.174295146,-3.750634968,0,0,0,0,0,0
0.4027800661897737,-3.559056322,-3.961921567,1.578138128,2.182350817,-3.760488945,0,0,0,0,0,0
0.3968636264092486,-3.590723877,-3.987674797,1.596930125,2.192269212,-3.789199337,0,0,0,0,0,0
0.4108209817712138,-3.581227937,-3.992115747,1.585203477,2.201468364,-3.786671842,0,0,0,0,0,0
0.40074107041903995,-3.597151907,-3.997924149,1.598205418,2.19933261,-3.797538028,0,0,0,0,0,0
0.3956976089175779,-3.644467164,-4.040221361,1.624384777,2.217959485,-3.842344262,0,0,0,0,0,0
0.41321221021465165,-3.613902017,-4.027189148,1.600344903,2.220200679,-3.820545582,0,0,0,0,0,0
0.4276234892308676,-3.568434213,-3.996120007,1.570405362,2.211871748,-3.78227711,0,0,0,0,0,0
0.4583362221503962,-3.563385584,-4.021740986,1.552524681,2.240038604,-3.792563285,0,0,0,0,0,0
0.5000591210648995,-3.544195635,-4.044293137,1.522068257,2.272176129,-3.794244386,0,0,0,0,0,0
0.49719688714390803,-3.525387358,-4.022627573,1.514095236,2.25991223,-3.774007466,0,0,0,0,0,0
0.4699848169787216,-3.552199647,-4.022224886,1.541107415,2.246104851,-3.787212266,0,0,0,0,0,0
0.4554001355650045,-3.596776841,-4.05223526,1.570688353,2.253817698,-3.824506051,0,0,0,0,0,0
0.4368862412231231,-3.610366777,-4.047302979,1.586740268,2.24209461,-3.828834878,0,0,0,0,0,0
0.45256604382229554,-3.562094271,-4.014742026,1.554764113,2.233654035,-3.788418148,0,0,0,0,0,0
0.4647036135516296,-3.526578034,-3.991355264,1.53093721,2.228029439,-3.758966649,0,0,0,0,0,0
0.447310798,-3.573631565,-4.020999551,1.563160383,2.234155175,-3.797315558,0,0,0,0,0,0
0.43920621547297356,-3.58986553,-4.029119357,1.575329657,2.234162786,-3.809492443,0,0,0,0,0,0
0.4419188716855681,-3.562262972,-4.004260354,1.56017205,2.223089613,-3.783261663,0,0,0,0,0,0
0.43872945730763785,-3.575094082,-4.013911032,1.568182312,2.226320245,-3.794502557,0,0,0,0,0,0
0.45062090922593323,-3.615100293,-4.065803639,1.582239692,2.258212274,-3.840451966,0,0,0,0,0,0
0.46206694020223377,-3.64070361,-4.102867888,1.589318335,2.282467414,-3.871785749,0,0,0,0,0,0
0.4588817946223546,-3.619718504,-4.078687058,1.580418355,2.268784426,-3.849202781,0,0,0,0,0,0
0.4736064233177513,-3.576671622,-4.05035241,1.5515326,2.261979417,-3.813512016,0,0,0,0,0,0
0.48605853237002394,-3.554852175,-4.040954495,1.534396821,2.263506514,-3.797903335,0,0,0,0,0,0
0.4778268501460713,-3.549368048,-4.02728095,1.535770599,2.2525539,-3.788324499,0,0,0,0,0,0
0.45584205859127824,-3.558980036,-4.014956611,1.551568989,2.235399335,-3.786968324,0,0,0,0,0,0
0.46622286540658175,-3.562050942,-4.028369693,1.547914038,2.247296279,-3.795210318,0,0,0,0,0,0
0.4401910500608533,-3.569505093,-4.009811376,1.564657021,2.225001213,-3.789658235,0,0,0,0,0,0
0.3967167706890297,-3.611722967,-4.008539475,1.607503098,2.202628123,-3.810131221,0,0,0,0,0,0
0.4088291027424818,-3.631224545,-4.040135778,1.611197721,2.22448244,-3.835680161,0,0,0,0,0,0
0.4137163075669789,-3.616548989,-4.030330128,1.601416341,2.222023218,-3.823439559,0,0,0,0,0,0
0.45911856363921677,-3.562364412,-4.021555278,1.551622924,2.240336921,-3.791959845,0,0,0,0,0,0
0.49689367308595067,-3.53274703,-4.029706802,1.517926678,2.263300237,-3.781226916,0,0,0,0,0,0
0.48764683995645386,-3.550846274,-4.038580431,1.531599717,2.263113636,-3.794713352,0,0,0,0,0,0
0.47492966041120743,-3.555107401,-4.030125373,1.540088871,2.252527516,-3.792616387,0,0,0,0,0,0
0.41802855436421266,-3.575233268,-3.993333791,1.578602357,2.205681173,-3.784283529,0,0,0,0,0,0
0.37310096080469524,-3.607075912,-3.980295832,1.616987476,2.176698397,-3.793685872,0,0,0,0,0,0
0.39740195947182994,-3.62961755,-4.027091422,1.616107795,2.212246691,-3.828354486,0,0,0,0,0,0
0.41956889513261475,-3.606799948,-4.026445207,1.593615526,2.223007051,-3.816622577,0,0,0,0,0,0
0.4120682885354593,-3.562842097,-3.974993424,1.575386904,2.193530856,-3.76891776,0,0,0,0,0,0
0.4440258224304122,-3.548443539,-3.992555644,1.552208858,2.218290733,-3.770499592,0,0,0,0,0,0
0.4410994611341703,-3.549488019,-3.99067796,1.554194279,2.21588871,-3.770082989,0,0,0,0,0,0
0.44430576522333326,-3.541890065,-3.986270995,1.54879215,2.21528838,-3.76408053,0,0,0,0,0,0
0.4685431577178505,-3.547689188,-4.016328146,1.539573015,2.242435652,-3.782008667,0,0,0,0,0,0
0.44155696817838386,-3.560143118,-4.001785529,1.559293075,2.221671249,-3.780964324,0,0,0,0,0,0
0.3925783210867481,-3.616305604,-4.008953449,1.611863641,2.200765885,-3.812629526,0,0,0,0,0,0
0.38884980167283917,-3.625340569,-4.014266426,1.618245384,2.201558114,-3.819803497,0,0,0,0,0,0
0.4305078922359713,-3.585345137,-4.015936436,1.577418622,2.223222164,-3.800640787,0,0,0,0,0,0
0.4305443234450758,-3.578662873,-4.009299713,1.574059275,2.219922018,-3.793981293,0,0,0,0,0,0
0.4226013946809934,-3.559084184,-3.981781468,1.568241395,2.202191431,-3.770432826,0,0,0,0,0,0
0.48413778194109747,-3.563856777,-4.048087347,1.539859497,2.266112564,-3.805972062,0,0,0,0,0,0
0.5232945132589985,-3.576340288,-4.099721233,1.526522887,2.311507873,-3.83803076,0,0,0,0,0,0
0.5467153359042892,-3.549604738,-4.096387175,1.501444701,2.321551256,-3.822995957,0,0,0,0,0,0
0.51986742,-3.603803747,-4.123734468,1.541968164,2.321800944,-3.863769108,0,0,0,0,0,0
0.3855827386216042,-3.655057606,-4.040728258,1.634737434,2.213155498,-3.847892932,0,0,0,0,0,0
0.3154715234018905,-3.603837515,-3.919384815,1.644182996,2.117428169,-3.761611165,0,0,0,0,0,0
0.3452655354683502,-3.570943386,-3.916284699,1.612838925,2.130775117,-3.743614042,0,0,0,0,0,0
0.40074895596016824,-3.585960298,-3.986799201,1.592605671,2.193774079,-3.78637975,0,0,0,0,0,0
0.44343405212704035,-3.59693012,-4.040442322,1.576748034,2.241938187,-3.818686221,0,0,0,0,0,0
0.4755076570884206,-3.59094038,-4.066547717,1.557716362,2.271027687,-3.828744049,0,0,0,0,0,0
0.4496663898719838,-3.593284683,-4.043012097,1.571809146,2.246339244,-3.81814839,0,0,0,0,0,0
0.40141181638864154,-3.62440251,-4.025832097,1.611495347,2.213621957,-3.825117303,0,0,0,0,0,0
0.40307956607013445,-3.669755727,-4.072867033,1.633338081,2.237973299,-3.87131138,0,0,0,0,0,0
0.41015062071394487,-3.628874195,-4.039089606,1.609361787,2.224620113,-3.833981901,0,0,0,0,0,0
0.4161316093252167,-3.561513294,-3.977745072,1.572690842,2.196938341,-3.769629183,0,0,0,0,0,0
0.4295521796445692,-3.545260889,-3.974909328,1.557854354,2.202230754,-3.760085108,0,0,0,0,0,0
0.43412648797329295,-3.560961788,-3.995194553,1.56341765,2.214660521,-3.778078171,0,0,0,0,0,0
0.41508619822275983,-3.58891998,-4.00409542,1.586916891,2.209590809,-3.7965077,0,0,0,0,0,0
0.3888475581141555,-3.603607233,-3.992540109,1.607379838,2.190693834,-3.798073671,0,0,0,0,0,0
0.39470262475163265,-3.61018109,-4.004949896,1.607739233,2.19982626,-3.807565493,0,0,0,0,0,0
0.4109153276783747,-3.651175472,-4.062146405,1.620130072,2.236530866,-3.856660939,0,0,0,0,0,0
0.41396921701212697,-3.644308421,-4.05836835,1.615169602,2.236168783,-3.851338385,0,0,0,0,0,0
0.4070626669347541,-3.590182429,-3.997341312,1.591559881,2.202201989,-3.79376187,0,0,0,0,0,0
0.445024861,-3.555147166,-4.000223171,1.555061152,2.222624016,-3.777685169,0,0,0,0,0,0
0.4569571039090135,-3.537719145,-3.994736355,1.540381021,2.225846729,-3.76622775,0,0,0,0,0,0
0.4372254048138305,-3.556392862,-3.993684428,1.559583729,2.215454917,-3.775038645,0,0,0,0,0,0
0.4646717154986033,-3.5791521,-4.043916886,1.557240192,2.254294301,-3.811534493,0,0,0,0,0,0
0.4854022701008015,-3.576199373,-4.06167358,1.545398551,2.273537925,-3.818936476,0,0,0,0,0,0
0.4826542518450798,-3.617233866,-4.099974787,1.567289807,2.291314519,-3.858604327,0,0,0,0,0,0
0.4956376821007556,-3.652156182,-4.147912818,1.57825925,2.32177525,-3.9000345,0,0,0,0,0,0
0.48272746133648475,-3.622856397,-4.105660712,1.570064468,2.294194087,-3.864258555,0,0,0,0,0,0
0.39060714443526046,-3.595486538,-3.986150155,1.602439697,2.18837865,-3.790818347,0,0,0,0,0,0
0.3788119686756911,-3.58163614,-3.960536584,1.601412086,2.169674277,-3.771086362,0,0,0,0,0,0
0.45898161139873817,-3.560828467,-4.019888645,1.550923428,2.239435128,-3.790358556,0,0,0,0,0,0
0.4871577432601991,-3.578536638,-4.065783738,1.545689447,2.276470741,-3.822160188,0,0,0,0,0,0
0.4732813132840515,-3.606180482,-4.079568855,1.566449585,2.276425084,-3.842874669,0,0,0,0,0,0
0.4294185720221462,-3.633591968,-4.06306838,1.602086698,2.246243476,-3.848330174,0,0,0,0,0,0
0.39274937007568494,-3.672892005,-4.06571369,1.640071317,2.22923153,-3.869302848,0,0,0,0,0,0
0.37968473790658186,-3.647642541,-4.027442414,1.633978902,2.203563576,-3.837542477,0,0,0,0,0,0
0.396793032,-3.600867455,-3.997766331,1.602037212,2.197279681,-3.799316893,0,0,0,0,0,0
0.4299746733822869,-3.590379494,-4.02046298,1.580202411,2.225218827,-3.805421237,0,0,0,0,0,0
0.4392008795115486,-3.590266222,-4.029582425,1.575532671,2.234391652,-3.809924323,0,0,0,0,0,0
0.4476729672349728,-3.59446886,-4.042217084,1.573397946,2.244945026,-3.818342972,0,0,0,0,0,0
0.45462803273466135,-3.58635377,-4.041016089,1.565862869,2.247822061,-3.81368493,0,0,0,0,0,0
0.4590417118729348,-3.570760344,-4.029826042,1.555859316,2.244433877,-3.800293193,0,0,0,0,0,0
0.43503890665066813,-3.585848744,-4.020977374,1.575404919,2.22800814,-3.803413059,0,0,0,0,0,0
0.4228979111243177,-3.627480161,-4.050508768,1.602291125,2.236703339,-3.838994464,0,0,0,0,0,0
0.44333716912954235,-3.634529331,-4.077936873,1.595596081,2.260637021,-3.856233102,0,0,0,0,0,0
0.4584795647981578,-3.594669929,-4.053219813,1.568095182,2.255849689,-3.823944871,0,0,0,0,0,0
0.4455000524609484,-3.570727667,-4.016301828,1.562613808,2.23090094,-3.793514748,0,0,0,0,0,0
0.40454627937780663,-3.599280996,-4.003880997,1.597367358,2.204213638,-3.801580996,0,0,0,0,0,0
0.41214042004249624,-3.612518024,-4.024737159,1.600188802,2.218438789,-3.818627591,0,0,0,0,0,0
0.4709270309537295,-3.605714372,-4.076718936,1.567393671,2.273822984,-3.841216654,0,0,0,0,0,0
0.4800907595581494,-3.648016001,-4.128156336,1.583962621,2.304123548,-3.888086168,0,0,0,0,0,0
0.4771569479992472,-3.65846202,-4.135725029,1.590652536,2.306440988,-3.897093525,0,0,0,0,0,0
0.4895262618841536,-3.599203764,-4.088812287,1.554838751,2.289169274,-3.844008026,0,0,0,0,0,0
0.48313085248691645,-3.565428983,-4.048630429,1.541149065,2.265880641,-3.807029706,0,0,0,0,0,0
0.49333294755553553,-3.555988241,-4.049400658,1.531327647,2.271366803,-3.80269445,0,0,0,0,0,0
0.4589410652633226,-3.55559848,-4.014589601,1.548328707,2.236765333,-3.78509404,0,0,0,0,0,0
0.45080311851314064,-3.558187553,-4.009074054,1.553692217,2.229938586,-3.783630803,0,0,0,0,0,0
0.5171087408105774,-3.577457957,-4.094678094,1.530174608,2.305893417,-3.836068025,0,0,0,0,0,0
0.518107462,-3.614430765,-4.132601643,1.548161651,2.325354553,-3.873516204,0,0,0,0,0,0
0.4340061355345236,-3.656151976,-4.090251526,1.61107292,2.262128831,-3.873201751,0,0,0,0,0,0
0.3704267347428747,-3.649324875,-4.019832703,1.63944907,2.195129719,-3.834578789,0,0,0,0,0,0
0.3786330748982135,-3.603249576,-3.981917166,1.612308251,2.18027512,-3.792583371,0,0,0,0,0,0
0.4257256910993036,-3.579246282,-4.005060479,1.576760295,2.215393085,-3.79215338,0,0,0,0,0,0
0.4713512503774206,-3.57621028,-4.047646899,1.552429515,2.259499075,-3.81192859,0,0,0,0,0,0
0.46133164580919983,-3.58177013,-4.04312824,1.560219242,2.252229943,-3.812449185,0,0,0,0,0,0
0.40671445230119113,-3.600291812,-4.00705317,1.59678868,2.206883811,-3.803672491,0,0,0,0,0,0
0.38455091944668046,-3.612495364,-3.997103564,1.613972222,2.190827242,-3.804799464,0,0,0,0,0,0
0.388245772,-3.651422856,-4.039740978,1.631588542,2.213993375,-3.845581917,0,0,0,0,0,0
0.39743178789189515,-3.629236609,-4.026791068,1.615902411,2.212111428,-3.828013839,0,0,0,0,0,0
0.3974686646271465,-3.586115022,-3.983687013,1.594323179,2.190577839,-3.784901017,0,0,0,0,0,0
0.4115201581413136,-3.584118125,-3.99569257,1.586298983,2.203606364,-3.789905347,0,0,0,0,0,0
0.4373485781697406,-3.581213643,-4.018651504,1.571932532,2.228000041,-3.799932573,0,0,0,0,0,0
0.46568699394547486,-3.581638223,-4.047435801,1.557975615,2.256561398,-3.814537012,0,0,0,0,0,0
0.46648042321869165,-3.589137547,-4.055696157,1.561328562,2.26108829,-3.822416852,0,0,0,0,0,0
0.4230769543868572,-3.611620349,-4.034760897,1.594271697,2.228918926,-3.823190623,0,0,0,0,0,0
0.3689334958608217,-3.66091418,-4.029891619,1.645990342,2.199412558,-3.8454029,0,0,0,0,0,0
0.3648265728808354,-3.692372528,-4.057235096,1.663772977,2.211030834,-3.874803812,0,0,0,0,0,0
0.38112866897114306,-3.659568742,-4.040754258,1.639220037,2.210941463,-3.8501615,0,0,0,0,0,0
0.3842827003842151,-3.631449822,-4.015824214,1.623583561,2.200053457,-3.823637018,0,0,0,0,0,0
0.3896174687724321,-3.617405312,-4.007099341,1.613893922,2.198358405,-3.812252327,0,0,0,0,0,0
0.3767601713621329,-3.609949723,-3.986774003,1.616594776,2.181767087,-3.798361863,0,0,0,0,0,0
0.3678799105807862,-3.615000907,-3.982946889,1.623560498,2.1754134,-3.798973898,0,0,0,0,0,0
0.39931761695250423,-3.624659311,-4.024042592,1.612670847,2.211680104,-3.824350952,0,0,0,0,0,0
0.43251336800528006,-3.678388024,-4.110993237,1.622937328,2.271753302,-3.89469063,0,0,0,0,0,0
0.37011928181779186,-3.699185066,-4.069374339,1.664532892,2.21974681,-3.884279703,0,0,0,0,0,0
0.30921823283076444,-3.658211234,-3.967521752,1.674496501,2.138369992,-3.812866493,0,0,0,0,0,0
0.3633506943756762,-3.623405989,-3.98689778,1.630027647,2.175124237,-3.805151884,0,0,0,0,0,0
0.3842685425053942,-3.618879048,-4.003261122,1.617305253,2.193764832,-3.811070085,0,0,0,0,0,0
0.352534325,-3.630935044,-3.98358406,1.639200359,2.168059192,-3.807259552,0,0,0,0,0,0
0.3615600901298612,-3.625567508,-3.987233022,1.632003709,2.174396556,-3.806400265,0,0,0,0,0,0
0.35980526881614777,-3.613199792,-3.973093179,1.626697261,2.166449224,-3.793146485,0,0,0,0,0,0
0.32057072313964324,-3.631218791,-3.951826185,1.655324034,2.136198454,-3.791522488,0,0,0,0,0,0
0.28667632631018436,-3.686462728,-3.973170862,1.699893201,2.129923594,-3.829816795,0,0,0,0,0,0
0.2702093338889289,-3.684756423,-3.955083835,1.707273544,2.112646584,-3.819920129,0,0,0,0,0,0
0.25351966238459644,-3.654076637,-3.907703022,1.700278487,2.080611342,-3.78088983,0,0,0,0,0,0
0.2602788109213732,-3.664419493,-3.924746111,1.702070341,2.092512461,-3.794582802,0,0,0,0,0,0
0.2814455104128595,-3.662846627,-3.944375425,1.690700558,2.112910468,-3.803611026,0,0,0,0,0,0
0.285561899,-3.646326839,-3.931987526,1.68038247,2.108774713,-3.789157182,0,0,0,0,0,0
0.2776371560015614,-3.642152532,-3.91984956,1.682257688,2.098743358,-3.781001046,0,0,0,0,0,0
0.31814196675547696,-3.61933953,-3.937551039,1.650598782,2.127846503,-3.778445285,0,0,0,0,0,0
0.3418179975867031,-3.647467892,-3.989367791,1.652824947,2.165592894,-3.818417842,0,0,0,0,0,0
0.28308948968568426,-3.695812917,-3.978963036,1.706361714,2.131026263,-3.837387977,0,0,0,0,0,0
0.2869623479302541,-3.667459575,-3.954498593,1.690248614,2.120730471,-3.810979084,0,0,0,0,0,0
0.34534429883184703,-3.608173272,-3.953609516,1.631414486,2.149476907,-3.780891394,0,0,0,0,0,0
0.38256914729238833,-3.579530804,-3.962159216,1.598480829,2.172364182,-3.77084501,0,0,0,0,0,0
0.3903272487900388,-3.587409166,-3.977796514,1.598540959,2.184061881,-3.78260284,0,0,0,0,0,0
0.3563605602218753,-3.611529847,-3.967963197,1.627584643,2.162161878,-3.789746522,0,0,0,0,0,0
0.3363689603594856,-3.622614215,-3.959047987,1.643122627,2.147708474,-3.790831101,0,0,0,0,0,0
0.3409501255415954,-3.649157608,-3.99017489,1.654103741,2.165562508,-3.819666249,0,0,0,0,0,0
0.353631631,-3.674239213,-4.027961266,1.660303791,2.190796449,-3.85110024,0,0,0,0,0,0
0.3837912889473269,-3.625633432,-4.009521438,1.620921072,2.196656364,-3.817577435,0,0,0,0,0,0
0.4174370622654098,-3.58412376,-4.001630386,1.583343349,2.209533724,-3.792877073,0,0,0,0,0,0
0.43299777787207666,-3.567130627,-4.000235319,1.567066425,2.216616549,-3.783682973,0,0,0,0,0,0
0.427561536,-3.563150007,-3.990841993,1.567794235,2.209201765,-3.776996,0,0,0,0,0,0
0.42467462233892783,-3.566158783,-3.99091071,1.57074208,2.207792666,-3.778534746,0,0,0,0,0,0
0.4362737300371275,-3.58627321,-4.022640665,1.57499974,2.229457197,-3.804456937,0,0,0,0,0,0
0.44050187160094345,-3.610124478,-4.050710388,1.584811303,2.24560613,-3.830417433,0,0,0,0,0,0
0.41310614003325746,-3.633532572,-4.046716123,1.610213216,2.229911132,-3.840124347,0,0,0,0,0,0
0.3976681583644725,-3.642950269,-4.040709842,1.622641055,2.219189,-3.841830055,0,0,0,0,0,0
0.446108432,-3.609193447,-4.055361805,1.581542508,2.250735118,-3.832277626,0,0,0,0,0,0
0.5101832439753177,-3.580542243,-4.090788518,1.5351795,2.300485881,-3.83566538,0,0,0,0,0,0
0.479643926,-3.586873269,-4.066576521,1.553614671,2.273110224,-3.826724895,0,0,0,0,0,0
0.4615747828061047,-3.597662413,-4.059324268,1.568043815,2.260449525,-3.82849334,0,0,0,0,0,0
0.5178759327258844,-3.576511447,-4.094486985,1.529317757,2.306181459,-3.835499216,0,0,0,0,0,0
0.4502524892599734,-3.575430046,-4.02574965,1.562588778,2.23800107,-3.800589848,0,0,0,0,0,0
0.4008837410966859,-3.626885236,-4.027833416,1.613000747,2.214358578,-3.827359326,0,0,0,0,0,0
0.4579144315452094,-3.638014737,-4.096002422,1.590050153,2.276958427,-3.867008579,0,0,0,0,0,0
0.5082058705586012,-3.587854354,-4.096129571,1.539824242,2.302167721,-3.841991962,0,0,0,0,0,0
0.5187875476197384,-3.555508964,-4.074353981,1.518360708,2.296570764,-3.814931472,0,0,0,0,0,0
0.5136064814474812,-3.550275437,-4.063953302,1.518334478,2.288779892,-3.80711437,0,0,0,0,0,0
0.48085402280253475,-3.551651654,-4.03257896,1.535398815,2.256716491,-3.792115307,0,0,0,0,0,0
0.44231276524568347,-3.563677366,-4.006062193,1.5606823,2.224187479,-3.78486978,0,0,0,0,0,0
0.4550259779649773,-3.561287375,-4.016413796,1.553130699,2.235719887,-3.788850586,0,0,0,0,0,0
0.4520950581349899,-3.586361074,-4.03853144,1.567133008,2.245313249,-3.812446257,0,0,0,0,0,0
0.4373727826363782,-3.623047609,-4.060468669,1.592837413,2.248920726,-3.841758139,0,0,0,0,0,0
0.43304164656409566,-3.615415088,-4.048528507,1.591186721,2.240785077,-3.831971798,0,0,0,0,0,0
0.4621188276602583,-3.581427562,-4.043612292,1.559654367,2.25286556,-3.812519927,0,0,0,0,0,0
0.49806430160206405,-3.558445879,-4.056570905,1.530190789,2.277317603,-3.807508392,0,0,0,0,0,0
0.5210527273352283,-3.5448461,-4.065985047,1.511896686,2.293518887,-3.805415574,0,0,0,0,0,0
0.5193779373233245,-3.54182838,-4.061287507,1.511225221,2.290332722,-3.801557944,0,0,0,0,0,0
0.48272801466806764,-3.556058057,-4.038879164,1.536665021,2.260803589,-3.797468611,0,0,0,0,0,0
0.48095893865386224,-3.576088956,-4.057108942,1.547565009,2.26903394,-3.816598949,0,0,0,0,0,0
0.44312233849517774,-3.646008048,-4.089189939,1.601442855,2.266156139,-3.867598994,0,0,0,0,0,0
0.40104515042030503,-3.664131288,-4.065233939,1.631543069,2.233139545,-3.864682614,0,0,0,0,0,0
0.44529108235721543,-3.608292018,-4.053630564,1.581500468,2.249460823,-3.830961291,0,0,0,0,0,0
0.47724723773648314,-3.577904563,-4.05521691,1.550328663,2.266232074,-3.816560737,0,0,0,0,0,0
0.49297090579540703,-3.558908678,-4.051948772,1.532968886,2.272459839,-3.805428725,0,0,0,0,0,0
0.4933474453431303,-3.537268992,-4.030714054,1.521960773,2.262030749,-3.783991523,0,0,0,0,0,0
0.4962555362085871,-3.534984478,-4.031291207,1.519364471,2.263773372,-3.783137842,0,0,0,0,0,0
0.5063988823397797,-3.54411727,-4.05054549,1.518859194,2.278472186,-3.79733138,0,0,0,0,0,0
0.5168032214237503,-3.572627981,-4.089543244,1.52791238,2.303173233,-3.831085613,0,0,0,0,0,0
0.5069528865615537,-3.573863901,-4.080891901,1.533455507,2.293922394,-3.827377901,0,0,0,0,0,0
0.48992714280592964,-3.486055271,-3.976028591,1.498064064,2.232977867,-3.731041931,0,0,0,0,0,0
0.49134585920819085,-3.383534996,-3.874965628,1.446094569,2.183155744,-3.629250312,0,0,0,0,0,0
0.5092115131663707,-3.310470154,-3.819750994,1.400629321,2.164481254,-3.565110574,0,0,0,0,0,0
0.505415781,-3.296559795,-3.802068007,1.395572007,2.153741894,-3.549313901,0,0,0,0,0,0
0.40735640110854293,-3.306086787,-3.713558904,1.449365193,2.060457653,-3.509822846,0,0,0,0,0,0
0.22161190583799897,-3.322923069,-3.544626378,1.550655582,1.883119142,-3.433774724,0,0,0,0,0,0
0.03107102,-3.387291792,-3.418433666,1.678110386,1.724752343,-3.402862729,0,0,0,0,0,0
-0.166819411,-3.474282367,-3.307535403,1.820550889,1.570357996,-3.390908885,0,0,0,0,0,0
-0.373605454,-3.543456885,-3.169911434,1.958531169,1.39815299,-3.35668416,0,0,0,0,0,0
-0.539035391,-3.629355931,-3.090444234,2.084195661,1.275704422,-3.359900083,0,0,0,0,0,0
-0.566779162,-3.585081085,-3.0184174,2.075930124,1.225819119,-3.301749243,0,0,0,0,0,0
-0.455260322,-3.424205695,-2.968972904,1.939733008,1.256856291,-3.196589299,0,0,0,0,0,0
-0.316954238,-3.307882825,-2.990988685,1.812418532,1.337017223,-3.149435755,0,0,0,0,0,0
-0.164433311,-3.231178949,-3.066865028,1.69780613,1.451215858,-3.149021988,0,0,0,0,0,0
0.018545783208157907,-3.188348579,-3.206996669,1.584901398,1.612771226,-3.197672624,0,0,0,0,0,0
0.22000855526183655,-3.17083377,-3.390913395,1.475412607,1.805460975,-3.280873582,0,0,0,0,0,0
0.35975451666652564,-3.174537392,-3.534379265,1.407391438,1.947066891,-3.354458328,0,0,0,0,0,0
0.46127558401006125,-3.180665176,-3.641998172,1.359694796,2.051636878,-3.411331674,0,0,0,0,0,0
0.5327725092905867,-3.246190357,-3.779032188,1.356708924,2.155902349,-3.512611272,0,0,0,0,0,0
0.5842931397286898,-3.367251952,-3.951632602,1.391479406,2.267962871,-3.659442277,0,0,0,0,0,0
0.6165564950438702,-3.493359252,-4.109991517,1.438401378,2.363274006,-3.801675385,0,0,0,0,0,0
0.6546926500759787,-3.578370912,-4.233131384,1.461839131,2.443912017,-3.905751148,0,0,0,0,0,0
0.7145150664097611,-3.614674002,-4.329262696,1.450079468,2.521888881,-3.971968349,0,0,0,0,0,0
0.7518445949931054,-3.696805973,-4.448722893,1.472480689,2.600283744,-4.072764433,0,0,0,0,0,0
0.767296122,-3.744305167,-4.511681146,1.488504522,2.639488634,-4.127993157,0,0,0,0,0,0
0.7674272378280208,-3.679614271,-4.447121456,1.456093517,2.607274347,-4.063367864,0,0,0,0,0,0
0.7577677139927347,-3.653032299,-4.410874848,1.447632293,2.584321281,-4.031953574,0,0,0,0,0,0
0.7464545415722237,-3.683270232,-4.429779565,1.468407845,2.588117053,-4.056524899,0,0,0,0,0,0
0.7393860713845327,-3.686737365,-4.426166079,1.473675647,2.582776075,-4.056451722,0,0,0,0,0,0
0.7341026169200829,-3.699709903,-4.433882056,1.482803643,2.583992337,-4.06679598,0,0,0,0,0,0
0.7221250552652557,-3.699695986,-4.421898778,1.488785465,2.572011917,-4.060797382,0,0,0,0,0,0
0.7033986211102573,-3.690215759,-4.393723341,1.493408569,2.548560981,-4.04196955,0,0,0,0,0,0
0.6843974194823443,-3.691926159,-4.376416965,1.50376437,2.530407192,-4.034171562,0,0,0,0,0,0
0.6544452311901003,-3.672819644,-4.327359732,1.509187207,2.490902482,-4.000089688,0,0,0,0,0,0
0.6352180631349769,-3.612656908,-4.247939838,1.488719423,2.441578951,-3.930298373,0,0,0,0,0,0
0.632107032,-3.566474272,-4.198661737,1.46718362,2.415384384,-3.882568005,0,0,0,0,0,0
0.6289219903952816,-3.5612723,-4.190267192,1.466175155,2.409594591,-3.875769746,0,0,0,0,0,0
0.6231457123737828,-3.552515287,-4.175700439,1.464684788,2.399423076,-3.864107863,0,0,0,0,0,0
0.5616449067929364,-3.535777692,-4.097504388,1.487066392,2.329574648,-3.81664104,0,0,0,0,0,0
0.4868778784123076,-3.547864627,-4.034824461,1.530493374,2.26085117,-3.791344544,0,0,0,0,0,0
0.48059034274594914,-3.572063002,-4.052692657,1.54573633,2.2666415,-3.812377829,0,0,0,0,0,0
0.4594940081157361,-3.571424248,-4.030961709,1.55596512,2.245227859,-3.801192978,0,0,0,0,0,0
0.4412846299498802,-3.540494077,-3.981870388,1.549604724,2.211577509,-3.761182232,0,0,0,0,0,0
0.46650613694176746,-3.535218785,-4.001817443,1.534356324,2.23416179,-3.768518114,0,0,0,0,0,0
0.43185966716760177,-3.549302145,-3.981221039,1.558721239,2.206540353,-3.765261592,0,0,0,0,0,0
0.4087410268005873,-3.536942582,-3.945755297,1.564100778,2.177248162,-3.74134894,0,0,0,0,0,0
0.443369116,-3.550557451,-3.994003991,1.553594167,2.218686554,-3.772280721,0,0,0,0,0,0
0.43480469013379813,-3.56005489,-3.994924503,1.5626251,2.214864597,-3.777489696,0,0,0,0,0,0
0.4140608958066549,-3.565102348,-3.979225855,1.575520726,2.196643375,-3.772164101,0,0,0,0,0,0
0.4209961676536261,-3.594845499,-4.015935576,1.586924666,2.218465872,-3.805390537,0,0,0,0,0,0
0.4442953209552271,-3.561135568,-4.005557014,1.558420124,2.224926167,-3.783346291,0,0,0,0,0,0
0.4488455723614593,-3.517933676,-3.966845812,1.534544052,2.207845692,-3.742389744,0,0,0,0,0,0
0.4432365901744091,-3.513507502,-3.956790522,1.535135456,2.200013556,-3.735149012,0,0,0,0,0,0
0.45010096401897476,-3.512100384,-3.962267465,1.53099971,2.206184215,-3.737183925,0,0,0,0,0,0
0.46839878689967285,-3.534603944,-4.003050147,1.533102579,2.235724467,-3.768827045,0,0,0,0,0,0
0.48703011367264315,-3.538375766,-4.025459949,1.525672826,2.256245031,-3.781917858,0,0,0,0,0,0
0.44431590760751677,-3.551584155,-3.996005393,1.553634124,2.22016065,-3.773794774,0,0,0,0,0,0
0.4289644225746168,-3.583891493,-4.01293652,1.577463535,2.220950471,-3.798414006,0,0,0,0,0,0
0.42853945347600186,-3.557505852,-3.986138435,1.564483199,2.207338944,-3.771822143,0,0,0,0,0,0
0.4041325400405475,-3.519730842,-3.923978511,1.557799151,2.164055525,-3.721854676,0,0,0,0,0,0
0.41408827268700804,-3.504130968,-3.918262765,1.545021348,2.166175519,-3.711196866,0,0,0,0,0,0
0.4034569047570872,-3.507791886,-3.911290475,1.552167491,2.15737369,-3.709541181,0,0,0,0,0,0
0.4051206381657904,-3.501954928,-3.907170519,1.548417145,2.156145579,-3.704562724,0,0,0,0,0,0
0.4310084848855423,-3.509448315,-3.94055308,1.539219915,2.185780783,-3.725000698,0,0,0,0,0,0
0.42263616297376316,-3.536184181,-3.958884423,1.556774009,2.190760293,-3.747534302,0,0,0,0,0,0
0.3971065382117671,-3.565046785,-3.962209348,1.583970123,2.179657943,-3.763628066,0,0,0,0,0,0
0.3926560872061214,-3.554715494,-3.947471361,1.581029703,2.170063724,-3.751093427,0,0,0,0,0,0
0.40295821931857223,-3.525879713,-3.928914366,1.561460747,2.165936292,-3.727397039,0,0,0,0,0,0
0.40617949625072386,-3.505297667,-3.911513671,1.549559086,2.158846584,-3.708405669,0,0,0,0,0,0
0.41158798711754907,-3.497822913,-3.90950125,1.543117463,2.160544618,-3.703662081,0,0,0,0,0,0
0.4359409875296682,-3.485413215,-3.921440543,1.524736114,2.178690765,-3.703426879,0,0,0,0,0,0
0.44559233289125333,-3.463195531,-3.908865994,1.508801599,2.177229163,-3.686030762,0,0,0,0,0,0
0.3800295040447066,-3.497275065,-3.877367624,1.55862278,2.128698564,-3.687321345,0,0,0,0,0,0
0.35235830309062827,-3.563395066,-3.91581608,1.605518381,2.134087191,-3.739605573,0,0,0,0,0,0
0.381126561,-3.57330804,-3.954492004,1.596090739,2.167809282,-3.763900022,0,0,0,0,0,0
0.37484385864126163,-3.521193762,-3.896081291,1.573174952,2.135462575,-3.708637526,0,0,0,0,0,0
0.4000531027372886,-3.489438395,-3.889604492,1.544692646,2.144828797,-3.689521443,0,0,0,0,0,0
0.4434437743977428,-3.496852455,-3.940396796,1.52670434,2.191920285,-3.718624626,0,0,0,0,0,0
0.4588383452745164,-3.475080604,-3.933985987,1.508121129,2.196412166,-3.704533296,0,0,0,0,0,0
0.4803775117123887,-3.46647781,-3.946931434,1.493050149,2.213654473,-3.706704622,0,0,0,0,0,0
0.47008922569449896,-3.484101419,-3.95425711,1.507006097,2.212173168,-3.719179264,0,0,0,0,0,0
0.41239074065213793,-3.514958802,-3.92739546,1.551284031,2.1698931,-3.721177131,0,0,0,0,0,0
0.38368207024972695,-3.538873133,-3.922626306,1.577595531,2.153154188,-3.73074972,0,0,0,0,0,0
0.38410677490712364,-3.522494735,-3.906684671,1.56919398,2.145395723,-3.714589703,0,0,0,0,0,0
0.37029780383062644,-3.490110994,-3.860462062,1.559906595,2.115379933,-3.675286528,0,0,0,0,0,0
0.3846617042603668,-3.46540225,-3.85009378,1.540370273,2.117377742,-3.657748015,0,0,0,0,0,0
0.3708040720769911,-3.469951762,-3.840814788,1.549573845,2.10580943,-3.655383275,0,0,0,0,0,0
0.3523328377688836,-3.460295208,-3.812695673,1.553981185,2.082514255,-3.636495441,0,0,0,0,0,0
0.36043998349735096,-3.451823856,-3.812311573,1.545691936,2.086375778,-3.632067715,0,0,0,0,0,0
0.36323970230441516,-3.476719248,-3.840006792,1.556739773,2.101623247,-3.65836302,0,0,0,0,0,0
0.3687045490655926,-3.501544138,-3.870311303,1.566419795,2.119507926,-3.685927721,0,0,0,0,0,0
0.42051295873378003,-3.467614198,-3.888201074,1.52355062,2.154357016,-3.677907636,0,0,0,0,0,0
0.42987993592593005,-3.439506096,-3.869444804,1.50481308,2.14966237,-3.65447545,0,0,0,0,0,0
0.36529211543602913,-3.452498266,-3.817866679,1.543603075,2.091579397,-3.635182473,0,0,0,0,0,0
0.3355104089263407,-3.469928355,-3.80552512,1.567208973,2.070517764,-3.637726737,0,0,0,0,0,0
0.3773581486683862,-3.447492346,-3.824922087,1.535067098,2.101140118,-3.636207216,0,0,0,0,0,0
0.3828823539097104,-3.441335565,-3.824291459,1.529226605,2.103586906,-3.632813512,0,0,0,0,0,0
0.3682539438047631,-3.470694859,-3.839051684,1.551220457,2.103652814,-3.654873271,0,0,0,0,0,0
0.3610400733588125,-3.483560496,-3.844656497,1.561260211,2.102848285,-3.664108497,0,0,0,0,0,0
0.3476994393761817,-3.494648443,-3.842399376,1.573474502,2.095049408,-3.668523909,0,0,0,0,0,0
0.37623606350803973,-3.455718642,-3.832047776,1.539741289,2.10414192,-3.643883209,0,0,0,0,0,0
0.38759751114968627,-3.406893117,-3.79458515,1.509647803,2.091091331,-3.600739134,0,0,0,0,0,0
0.3650470004256915,-3.399889351,-3.765050296,1.517421175,2.065048648,-3.582469823,0,0,0,0,0,0
0.36177451543922734,-3.395321938,-3.757184475,1.516773711,2.059479495,-3.576253206,0,0,0,0,0,0
0.3777647533057386,-3.410037154,-3.787845848,1.5161362,2.0828053,-3.598941501,0,0,0,0,0,0
0.36906038254394635,-3.425158137,-3.794279014,1.528048877,2.081669698,-3.609718576,0,0,0,0,0,0
0.33323967400294474,-3.441624726,-3.77493266,1.554192526,2.054086167,-3.608278693,0,0,0,0,0,0
0.3143287893419595,-3.472973058,-3.787351512,1.579322134,2.050840151,-3.630162285,0,0,0,0,0,0
0.3033441951934808,-3.446348953,-3.749760476,1.571502379,2.026552336,-3.598054714,0,0,0,0,0,0
0.3016784757067973,-3.41817787,-3.719965417,1.558249697,2.010821946,-3.569071644,0,0,0,0,0,0
0.34054924137984044,-3.405103207,-3.745758752,1.532276983,2.043153997,-3.575430979,0,0,0,0,0,0
0.4006616420873103,-3.364229926,-3.764992613,1.481784142,2.082827128,-3.564611269,0,0,0,0,0,0
0.4493621047084486,-3.339994471,-3.789448074,1.445316183,2.119405089,-3.564721272,0,0,0,0,0,0
0.4672421855260001,-3.344422041,-3.811741226,1.438589928,2.139491706,-3.578081634,0,0,0,0,0,0
0.43455811350359475,-3.377953817,-3.8125714,1.471697852,2.123564757,-3.595262609,0,0,0,0,0,0
0.35674278439355817,-3.428901534,-3.785736916,1.536079375,2.07123985,-3.607319225,0,0,0,0,0,0
0.2258731458772821,-3.419023486,-3.64496898,1.59657517,1.935421063,-3.531996233,0,0,0,0,0,0
0.24017809085071778,-3.379041599,-3.619266729,1.569431754,1.92972241,-3.499154164,0,0,0,0,0,0
0.3168080035310287,-3.331679011,-3.648596858,1.507435504,1.982702431,-3.490137934,0,0,0,0,0,0
0.32966085224870195,-3.274641599,-3.604408715,1.472490374,1.967034783,-3.439525157,0,0,0,0,0,0
0.3182938254395009,-3.252841328,-3.571213054,1.467273751,1.94475344,-3.412027191,0,0,0,0,0,0
0.30722030045789983,-3.300420604,-3.607757108,1.496600152,1.957488704,-3.454088856,0,0,0,0,0,0
0.30824409420412385,-3.326313566,-3.634673349,1.509034736,1.971458721,-3.480493457,0,0,0,0,0,0
0.28193198818428916,-3.3494133,-3.631401926,1.533740656,1.956666957,-3.490407613,0,0,0,0,0,0
0.2659436335386203,-3.358385176,-3.6244005,1.546220771,1.945172067,-3.491392838,0,0,0,0,0,0
0.2992207490078447,-3.289788168,-3.589088789,1.49528371,1.944154769,-3.439438479,0,0,0,0,0,0
0.3188028168217305,-3.225167057,-3.544056156,1.45318212,1.931429487,-3.384611607,0,0,0,0,0,0
0.3159618306741308,-3.241493933,-3.557544809,1.462766051,1.93675332,-3.399519371,0,0,0,0,0,0
0.3108983241500022,-3.266137327,-3.57714359,1.477619501,1.944020957,-3.421640458,0,0,0,0,0,0
0.3110616578487801,-3.252880041,-3.564067502,1.470909191,1.93756458,-3.408473771,0,0,0,0,0,0
0.30491295147081376,-3.259709732,-3.564702369,1.47739839,1.93480766,-3.41220605,0,0,0,0,0,0
0.3090859468979679,-3.276386074,-3.585555528,1.483650063,1.947320737,-3.430970801,0,0,0,0,0,0
0.31666441402121376,-3.297820627,-3.614566769,1.490578107,1.965615592,-3.456193698,0,0,0,0,0,0
0.3300172913734028,-3.258896322,-3.588992559,1.464439515,1.959504925,-3.42394444,0,0,0,0,0,0
0.3212548826092281,-3.198014729,-3.519396223,1.438379923,1.920325553,-3.358705476,0,0,0,0,0,0
0.2804940521049503,-3.187804719,-3.46837579,1.453655334,1.874434921,-3.328090255,0,0,0,0,0,0
0.2762261600816212,-3.190171567,-3.466465119,1.456972703,1.871345639,-3.328318343,0,0,0,0,0,0
0.2983788535810561,-3.179749349,-3.478216489,1.440685248,1.888297672,-3.328982919,0,0,0,0,0,0
0.29537695244987044,-3.162506508,-3.457986083,1.433564778,1.876681518,-3.310246295,0,0,0,0,0,0
0.2456142846258844,-3.194362708,-3.440056332,1.474374212,1.842835308,-3.31720952,0,0,0,0,0,0
0.23757190338942558,-3.233207515,-3.470860405,1.497817806,1.854216154,-3.35203396,0,0,0,0,0,0
0.2679276551270001,-3.230701124,-3.498720101,1.481386735,1.883323878,-3.364710612,0,0,0,0,0,0
0.3013480419179948,-3.198074897,-3.499492914,1.448363428,1.900420478,-3.348783906,0,0,0,0,0,0
0.32520778091013497,-3.154172565,-3.479453374,1.414482392,1.902330578,-3.316812969,0,0,0,0,0,0
0.3036761327472343,-3.148363675,-3.452093877,1.422343771,1.877885005,-3.300228776,0,0,0,0,0,0
0.27611047633138347,-3.156960741,-3.43311319,1.440425133,1.854611833,-3.295036966,0,0,0,0,0,0
0.28622239,-3.172893077,-3.459190556,1.443335343,1.872706473,-3.316041816,0,0,0,0,0,0
0.2914405265502953,-3.194251963,-3.485751042,1.451405718,1.888595784,-3.340001502,0,0,0,0,0,0
0.26429300020411806,-3.233928543,-3.49825635,1.484817772,1.881274675,-3.366092447,0,0,0,0,0,0
0.21157797156313507,-3.268158817,-3.479793714,1.528290423,1.845685843,-3.373976266,0,0,0,0,0,0
0.21110937274313088,-3.239383973,-3.450577464,1.5141373,1.830843418,-3.344980718,0,0,0,0,0,0
0.2576444072934397,-3.221645656,-3.479367095,1.482000624,1.868505751,-3.350506375,0,0,0,0,0,0
0.2790188790602483,-3.231472818,-3.510583582,1.47622697,1.89480123,-3.3710282,0,0,0,0,0,0
0.26421113084980474,-3.234340832,-3.498674441,1.485064851,1.881442786,-3.366507636,0,0,0,0,0,0
0.23769925459652727,-3.248250262,-3.486066275,1.505275504,1.861882765,-3.367158268,0,0,0,0,0,0
0.23928545920345898,-3.282025035,-3.521379189,1.521369788,1.880332324,-3.401702112,0,0,0,0,0,0
0.2684459788731898,-3.356440788,-3.624933242,1.543997405,1.94668961,-3.490687015,0,0,0,0,0,0
0.2707816856785234,-3.400147013,-3.671011451,1.564682664,1.970896568,-3.535579232,0,0,0,0,0,0
0.23967480957628884,-3.369219818,-3.608991275,1.564772504,1.924333042,-3.489105547,0,0,0,0,0,0
0.23311683227374363,-3.341180323,-3.574368563,1.554031745,1.903742697,-3.457774443,0,0,0,0,0,0
0.2634918710233106,-3.351748864,-3.615361678,1.544128497,1.939426774,-3.483555271,0,0,0,0,0,0
0.29516826372315846,-3.372987843,-3.668239744,1.53890979,1.981704004,-3.520613794,0,0,0,0,0,0
0.31198580120325153,-3.391684256,-3.703721083,1.539849227,2.007853442,-3.547702669,0,0,0,0,0,0
0.29637480316795317,-3.421153476,-3.717610724,1.562389336,2.006992764,-3.5693821,0,0,0,0,0,0
0.2806858621238232,-3.459872208,-3.740617842,1.589593173,2.010651852,-3.600245025,0,0,0,0,0,0
0.2548726382222147,-3.502726592,-3.757654845,1.623926977,2.006263741,-3.630190718,0,0,0,0,0,0
0.25773351580024845,-3.487039457,-3.74484269,1.614652971,2.001288103,-3.615941074,0,0,0,0,0,0
0.3000282772397418,-3.454250952,-3.754362196,1.577111337,2.027195237,-3.604306574,0,0,0,0,0,0
0.35486758434764787,-3.447480904,-3.802419518,1.54630666,2.078643551,-3.624950211,0,0,0,0,0,0
0.3598942779650967,-3.488850051,-3.848790489,1.564477887,2.104342383,-3.66882027,0,0,0,0,0,0
0.3360080785483097,-3.522378963,-3.85842404,1.593185442,2.097216059,-3.690401501,0,0,0,0,0,0
0.3246299906288918,-3.525747116,-3.850444986,1.600558563,2.087537488,-3.688096051,0,0,0,0,0,0
0.3363321671952369,-3.560235801,-3.896642795,1.611951817,2.116487481,-3.728439298,0,0,0,0,0,0
0.3543834947672425,-3.596727236,-3.951185674,1.62117187,2.152784584,-3.773956455,0,0,0,0,0,0
0.3669442287084069,-3.601420144,-3.968447122,1.617237957,2.167695675,-3.784933633,0,0,0,0,0,0
0.37913270684877276,-3.564583197,-3.94379076,1.592725245,2.161461733,-3.754186979,0,0,0,0,0,0
0.40156547009831284,-3.535841341,-3.937481802,1.567137935,2.169523636,-3.736661572,0,0,0,0,0,0
0.4052419960094776,-3.536088843,-3.941417342,1.565423424,2.173329669,-3.738753093,0,0,0,0,0,0
0.3897990946120088,-3.535034548,-3.924925556,1.572617727,2.157362325,-3.729980052,0,0,0,0,0,0
0.39451351250915984,-3.553118399,-3.947689659,1.579302443,2.171101586,-3.750404029,0,0,0,0,0,0
0.3885036648651151,-3.581924907,-3.970449172,1.596710621,2.179476418,-3.776187039,0,0,0,0,0,0
0.39271184073814686,-3.615260174,-4.00804046,1.611274167,2.20037615,-3.811650317,0,0,0,0,0,0
0.3948475779804508,-3.63637388,-4.03134115,1.620763151,2.213094364,-3.833857515,0,0,0,0,0,0
0.3704462299036894,-3.603963545,-3.974533595,1.616758658,2.172489912,-3.78924857,0,0,0,0,0,0
0.36847629727150805,-3.573609982,-3.942172079,1.602566843,2.155324188,-3.757891031,0,0,0,0,0,0
0.4113458878184158,-3.563157837,-3.974559017,1.575905975,2.192952452,-3.768858427,0,0,0,0,0,0
0.43056516930490074,-3.557837085,-3.988481399,1.563635958,2.209523284,-3.773159242,0,0,0,0,0,0
0.4054376554415899,-3.573459269,-3.978998979,1.584010807,2.192218317,-3.776229124,0,0,0,0,0,0
0.3876428621174308,-3.575732526,-3.963441427,1.594044832,2.175542144,-3.769586976,0,0,0,0,0,0
0.40055896349226977,-3.590469773,-3.991075269,1.594955405,2.195817116,-3.790772521,0,0,0,0,0,0
0.4241182062324038,-3.636417813,-4.060571802,1.606149803,2.242345004,-3.848494807,0,0,0,0,0,0
0.4313952449116352,-3.62959504,-4.061023922,1.599099897,2.246209583,-3.845309481,0,0,0,0,0,0
0.41090221694288104,-3.569359971,-3.980318954,1.579228877,2.195610586,-3.774839463,0,0,0,0,0,0
0.39369560655170516,-3.537531298,-3.931266324,1.571917846,2.162480965,-3.734398811,0,0,0,0,0,0
0.45058687975710504,-3.553787407,-4.004415842,1.551600264,2.227501361,-3.779101625,0,0,0,0,0,0
0.47580095368056424,-3.566627686,-4.042531552,1.545413366,2.259166253,-3.804579619,0,0,0,0,0,0
0.4444072627822789,-3.585912673,-4.030418554,1.570752705,2.237412908,-3.808165614,0,0,0,0,0,0
0.4196251737700637,-3.597891505,-4.017555631,1.589133166,2.218590402,-3.807723568,0,0,0,0,0,0
0.40364753765006006,-3.605794559,-4.00949707,1.601073511,2.206572304,-3.807645814,0,0,0,0,0,0
0.40548260205939196,-3.626415912,-4.031940851,1.610466655,2.218711727,-3.829178382,0,0,0,0,0,0
0.4301591147868722,-3.600948301,-4.031204688,1.585394593,2.230681901,-3.816076494,0,0,0,0,0,0
0.4579151953526572,-3.558601999,-4.016621726,1.550343402,2.237268461,-3.787611862,0,0,0,0,0,0
0.48451325600822565,-3.565510158,-4.050043715,1.540498451,2.267278486,-3.807776937,0,0,0,0,0,0
0.49069115409540565,-3.552856192,-4.04360902,1.531082519,2.267150087,-3.798232606,0,0,0,0,0,0
0.49039762791253344,-3.544646663,-4.035140723,1.527124518,2.262769175,-3.789893693,0,0,0,0,0,0
0.48496793607835814,-3.573352979,-4.058419335,1.544192521,2.271693635,-3.815886157,0,0,0,0,0,0
0.412294513,-3.61042432,-4.022818955,1.599064903,2.217556734,-3.816621637,0,0,0,0,0,0
0.37434180206382783,-3.631946609,-4.006350216,1.628802404,2.190346009,-3.819148413,0,0,0,0,0,0
0.4005249693517283,-3.587773094,-3.988369805,1.593624062,2.194447387,-3.78807145,0,0,0,0,0,0
0.4164750601013246,-3.55130166,-3.967837152,1.5674133,2.192156106,-3.759569406,0,0,0,0,0,0
0.457371855,-3.540398663,-3.997843428,1.541513404,2.227607641,-3.769121046,0,0,0,0,0,0
0.4698085518895921,-3.526997251,-3.996862587,1.52859435,2.233335569,-3.761929919,0,0,0,0,0,0
0.452121348,-3.528004528,-3.980180896,1.53794159,2.216151122,-3.754092712,0,0,0,0,0,0
0.4559532270315614,-3.536663471,-3.992720964,1.540355122,2.224337096,-3.764692217,0,0,0,0,0,0
0.44369662039485425,-3.569030523,-4.012796817,1.562666952,2.228246719,-3.79091367,0,0,0,0,0,0
0.40137953532437154,-3.609720957,-4.011154329,1.604170711,2.206266932,-3.810437643,0,0,0,0,0,0
0.3943765666766045,-3.610317769,-4.004765186,1.607970601,2.199570876,-3.807541478,0,0,0,0,0,0
0.43811877811829447,-3.593869893,-4.03207324,1.577875557,2.235096009,-3.812971566,0,0,0,0,0,0
0.4597493428652244,-3.544461056,-4.004264557,1.542355857,2.23200695,-3.774362807,0,0,0,0,0,0
0.4751449063375714,-3.53497692,-4.010160083,1.529916007,2.242652495,-3.772568502,0,0,0,0,0,0
0.5116553776491611,-3.560716185,-4.072439338,1.524530404,2.292047358,-3.816577762,0,0,0,0,0,0
0.5089669831162102,-3.548984,-4.058024073,1.520008509,2.283495528,-3.803504037,0,0,0,0,0,0
0.48301410679479867,-3.550516559,-4.03361579,1.533751226,2.258314948,-3.792066174,0,0,0,0,0,0
0.4520163900262202,-3.592935442,-4.045022937,1.570459526,2.248519663,-3.818979189,0,0,0,0,0,0
0.47144629629392865,-3.610648706,-4.082147515,1.569601205,2.276796906,-3.846398111,0,0,0,0,0,0
0.5045878639156544,-3.565677678,-4.070313562,1.530544907,2.287450713,-3.81799562,0,0,0,0,0,0
0.4678292449073909,-3.524400399,-3.992253366,1.528285577,2.230041306,-3.758326882,0,0,0,0,0,0
0.443815772,-3.52166677,-3.965529041,1.538925499,2.204672406,-3.743597906,0,0,0,0,0,0
0.42670909627159676,-3.563877965,-3.990668508,1.568584434,2.208688802,-3.777273236,0,0,0,0,0,0
0.40816742445336057,-3.573200142,-3.981438694,1.582516359,2.194803059,-3.777319418,0,0,0,0,0,0
0.4077292891487642,-3.568397576,-3.976197792,1.580334143,2.191963541,-3.772297684,0,0,0,0,0,0
0.41930593473949473,-3.60841334,-4.027798898,1.594553703,2.223552416,-3.818106119,0,0,0,0,0,0
0.4431548122163793,-3.627061459,-4.070303306,1.591953323,2.256729059,-3.848682382,0,0,0,0,0,0
0.45496950653375023,-3.588900198,-4.043930923,1.566965346,2.249450215,-3.81641556,0,0,0,0,0,0
0.4822088759416636,-3.539600427,-4.021843338,1.528695776,2.252026107,-3.780721883,0,0,0,0,0,0
0.4950896549162356,-3.510215139,-4.005374864,1.507562742,2.250232259,-3.757795001,0,0,0,0,0,0
0.4594364525124894,-3.514456954,-3.973972707,1.527510251,2.21670458,-3.744214831,0,0,0,0,0,0
0.43402822406394825,-3.525981408,-3.960059619,1.545976592,2.197043921,-3.743020513,0,0,0,0,0,0
0.43567128837115643,-3.537867494,-3.973599118,1.551098103,2.204635203,-3.755733306,0,0,0,0,0,0
0.45195756779330765,-3.561440623,-4.013470135,1.554741528,2.232713851,-3.787455379,0,0,0,0,0,0
0.43475941213547875,-3.601102451,-4.035940707,1.58317152,2.235350059,-3.818521579,0,0,0,0,0,0
0.4208291107318031,-3.59137189,-4.012299743,1.58527139,2.216564427,-3.801835817,0,0,0,0,0,0
0.43177212149091476,-3.56071701,-3.992576352,1.564472444,2.212174237,-3.776646681,0,0,0,0,0,0
0.4415558243858159,-3.550380343,-3.992024287,1.554412259,2.216790056,-3.771202315,0,0,0,0,0,0
0.46165585656506886,-3.548990149,-4.010751823,1.543667146,2.23620384,-3.779870986,0,0,0,0,0,0
0.4809182241158667,-3.543089879,-4.024083839,1.531085828,2.252501032,-3.783586859,0,0,0,0,0,0
0.49577295944741856,-3.545916579,-4.041730905,1.52507181,2.268751932,-3.793823742,0,0,0,0,0,0
0.4581852378231418,-3.584248325,-4.042501959,1.563031544,2.250343598,-3.813375142,0,0,0,0,0,0
0.39827644415148394,-3.626731062,-4.025096408,1.614227309,2.211686426,-3.825913735,0,0,0,0,0,0
0.3908381745960572,-3.616944737,-4.007858508,1.613053281,2.199348341,-3.812401623,0,0,0,0,0,0
0.4050714603670027,-3.577904212,-3.983032291,1.586416376,2.194051876,-3.780468251,0,0,0,0,0,0
0.42837017437438707,-3.565991538,-3.994425747,1.568810682,2.211397961,-3.780208643,0,0,0,0,0,0
0.441771843,-3.581049785,-4.022914123,1.569638971,2.232342983,-3.801981954,0,0,0,0,0,0
0.4434011594218309,-3.579215785,-4.022726396,1.567907313,2.233063778,-3.800971091,0,0,0,0,0,0
0.466955738,-3.561373135,-4.028428183,1.547208699,2.24769196,-3.794900659,0,0,0,0,0,0
0.45233294058163204,-3.563608526,-4.016007519,1.555637792,2.23417023,-3.789808022,0,0,0,0,0,0
0.42288846185107376,-3.588014323,-4.010967791,1.58256293,2.216928126,-3.799491057,0,0,0,0,0,0
0.4120809485032601,-3.616929392,-4.02908646,1.602424222,2.220583704,-3.823007926,0,0,0,0,0,0
0.42373607744557706,-3.601383069,-4.02520149,1.588823496,2.224468783,-3.813292279,0,0,0,0,0,0
0.4658993677712783,-3.568372152,-4.034334477,1.551236392,2.250116922,-3.801353315,0,0,0,0,0,0
0.4959018626811038,-3.562416989,-4.058369473,1.533257563,2.277135668,-3.810393231,0,0,0,0,0,0
0.5348710166265386,-3.550096496,-4.085036753,1.50761274,2.309953885,-3.817566624,0,0,0,0,0,0
0.5140951488851263,-3.550713665,-4.064868814,1.518309258,2.289481982,-3.80779124,0,0,0,0,0,0
0.4507451239002659,-3.563497563,-4.014299374,1.556376219,2.232522249,-3.788898469,0,0,0,0,0,0
0.45525277947360565,-3.582456043,-4.037772818,1.563601632,2.246512799,-3.81011443,0,0,0,0,0,0
0.44723550726864125,-3.616997339,-4.064305852,1.584880916,2.25577068,-3.840651595,0,0,0,0,0,0
0.44720857253254553,-3.607049509,-4.05430795,1.579920468,2.250758262,-3.83067873,0,0,0,0,0,0
0.47117737880936705,-3.5637156,-4.034939773,1.54626911,2.253058576,-3.799327686,0,0,0,0,0,0
0.4623364195432607,-3.527696095,-3.990138382,1.532679838,2.226237401,-3.758917238,0,0,0,0,0,0
0.4537358284847463,-3.52659126,-3.980405081,1.536427716,2.217070455,-3.753498171,0,0,0,0,0,0
0.46264003486568644,-3.551580712,-4.014260678,1.544470338,2.238450356,-3.782920695,0,0,0,0,0,0
0.45267917712268735,-3.558085284,-4.010816426,1.552703053,2.231747802,-3.784450855,0,0,0,0,0,0
0.4480776859846578,-3.608929254,-4.057093905,1.580425784,2.252585796,-3.83301158,0,0,0,0,0,0
0.4573770155600393,-3.666899454,-4.12436211,1.604761219,2.290869563,-3.895630782,0,0,0,0,0,0
0.47302025434474537,-3.640681895,-4.113734516,1.58383082,2.293377385,-3.877208205,0,0,0,0,0,0
0.4934556865037813,-3.582119519,-4.075612235,1.544331916,2.284533961,-3.828865877,0,0,0,0,0,0
0.4830643582603528,-3.570479547,-4.053595638,1.543707595,2.268329998,-3.812037593,0,0,0,0,0,0
0.4471299290337445,-3.555946341,-4.00315259,1.554408206,2.225141259,-3.779549466,0,0,0,0,0,0
0.43828406786624846,-3.554386817,-3.992754606,1.558051374,2.215519337,-3.773570711,0,0,0,0,0,0
0.4594843973987098,-3.573657489,-4.033203391,1.557086546,2.246343894,-3.80343044,0,0,0,0,0,0
0.48043662741908655,-3.579609652,-4.060148885,1.549586512,2.270292756,-3.819879269,0,0,0,0,0,0
0.4166629802207852,-3.612031233,-4.028774747,1.597684127,2.222718864,-3.82040299,0,0,0,0,0,0
0.37332392974889483,-3.639585931,-4.012971187,1.633131001,2.193147558,-3.826278559,0,0,0,0,0,0
0.41256390305611157,-3.594061131,-4.006715057,1.590748614,2.20963948,-3.800388094,0,0,0,0,0,0
0.4363470571432523,-3.578220247,-4.01465279,1.570936595,2.225499924,-3.796436518,0,0,0,0,0,0
0.43365846878018205,-3.589646256,-4.023381617,1.577993894,2.228520043,-3.806513937,0,0,0,0,0,0
0.4338572085233867,-3.579352393,-4.013273591,1.572747592,2.2235654,-3.796312992,0,0,0,0,0,0
0.4415387051410064,-3.570991454,-4.012616191,1.564726375,2.227077448,-3.791803823,0,0,0,0,0,0
0.42974709486909896,-3.580821418,-4.010642541,1.575537161,2.220194818,-3.79573198,0,0,0,0,0,0
0.41194431000892057,-3.627634905,-4.039655282,1.607845297,2.225799796,-3.833645093,0,0,0,0,0,0
0.40376315929000434,-3.680841511,-4.084650693,1.638539176,2.244206926,-3.882746102,0,0,0,0,0,0
0.41124118855387515,-3.674059801,-4.085370951,1.631409306,2.24830607,-3.879715376,0,0,0,0,0,0
0.42528735654001987,-3.643744198,-4.069134678,1.609228421,2.247211017,-3.856439438,0,0,0,0,0,0
0.3958516084747632,-3.623087116,-4.018981832,1.613617754,2.20741672,-3.821034474,0,0,0,0,0,0
0.37675552560629577,-3.632317695,-4.00918213,1.627781085,2.192968828,-3.820749913,0,0,0,0,0,0
0.41097245439802776,-3.651102398,-4.062191402,1.620064972,2.236581928,-3.8566469,0,0,0,0,0,0
0.4080837993873942,-3.634553836,-4.042715879,1.613235018,2.225399839,-3.838634857,0,0,0,0,0,0
0.3813014807582603,-3.63737489,-4.018766504,1.628036705,2.200033993,-3.828070697,0,0,0,0,0,0
0.33922192388291234,-3.682256668,-4.021528849,1.671517372,2.180375386,-3.851892758,0,0,0,0,0,0
0.32086430000890465,-3.695942085,-4.016864045,1.687538893,2.168864173,-3.856403065,0,0,0,0,0,0
0.3406322418894294,-3.668126636,-4.00884604,1.663747197,2.174739141,-3.838486338,0,0,0,0,0,0
0.3543557610818501,-3.633751501,-3.988201928,1.63969787,2.171278845,-3.810976715,0,0,0,0,0,0
0.3474378977753539,-3.639866795,-3.987368954,1.646214449,2.167403426,-3.813617874,0,0,0,0,0,0
0.3371539443209026,-3.649069275,-3.9862863,1.655957666,2.161720122,-3.817677788,0,0,0,0,0,0
0.3299493622753676,-3.658416865,-3.988457435,1.664233751,2.159203399,-3.82343715,0,0,0,0,0,0
0.3003814276856348,-3.699695216,-4.00015868,1.699656894,2.150270054,-3.849926948,0,0,0,0,0,0
0.2630114643674406,-3.728272383,-3.991346307,1.732630459,2.127178885,-3.859809345,0,0,0,0,0,0
0.23363803116813522,-3.738778958,-3.972497532,1.752570463,2.103067781,-3.855638245,0,0,0,0,0,0
0.24388326640628766,-3.734071299,-3.978071489,1.745094016,2.110977378,-3.856071394,0,0,0,0,0,0
0.2758454920164322,-3.703289196,-3.979219082,1.713721852,2.127532287,-3.841254139,0,0,0,0,0,0
0.29853495879841957,-3.680530784,-3.979127933,1.690997913,2.138831446,-3.829829358,0,0,0,0,0,0
0.31096832547968384,-3.687024128,-3.99806099,1.688027901,2.154514658,-3.842542559,0,0,0,0,0,0
0.3121430498999914,-3.68837948,-4.000577369,1.688118215,2.156360209,-3.844478424,0,0,0,0,0,0
0.30687840396354366,-3.698497202,-4.005445035,1.695809399,2.156161719,-3.851971118,0,0,0,0,0,0
0.30171167621933515,-3.703908047,-4.005708395,1.701098186,2.153710035,-3.854808221,0,0,0,0,0,0
0.2808931120832028,-3.702238024,-3.983209929,1.710672456,2.132051521,-3.842723976,0,0,0,0,0,0
0.2683203062665159,-3.657768148,-3.926163671,1.694723921,2.097241989,-3.79196591,0,0,0,0,0,0
0.3012004335706365,-3.630141026,-3.931399465,1.664470296,2.116299949,-3.780770245,0,0,0,0,0,0
0.3409980798440937,-3.640003589,-3.981052604,1.649502755,2.161025342,-3.810528096,0,0,0,0,0,0
0.3211122444139081,-3.62142924,-3.94264004,1.650158498,2.131876142,-3.78203464,0,0,0,0,0,0
0.34509765453322555,-3.619985616,-3.965190253,1.637443981,2.155143954,-3.792587934,0,0,0,0,0,0
0.3742122244970596,-3.627753876,-4.002034477,1.626770826,2.188123351,-3.814894176,0,0,0,0,0,0
0.35183405840855614,-3.637371679,-3.989287504,1.64276881,2.170560781,-3.813329592,0,0,0,0,0,0
0.33655460682836524,-3.686215808,-4.022840496,1.674830601,2.179697551,-3.854528152,0,0,0,0,0,0
0.3508496528113784,-3.67824012,-4.029165842,1.663695234,2.190007747,-3.853702981,0,0,0,0,0,0
0.38599617770130934,-3.617579677,-4.003629387,1.61579175,2.194812783,-3.810604532,0,0,0,0,0,0
0.42419121072956073,-3.584484029,-4.008725408,1.580146409,2.216458309,-3.796604719,0,0,0,0,0,0
0.4815999021887322,-3.573872551,-4.055592999,1.546136324,2.268596451,-3.814732775,0,0,0,0,0,0
0.46611516327007296,-3.586249036,-4.052458392,1.560066936,2.259286778,-3.819353714,0,0,0,0,0,0
0.4090573529314577,-3.598047322,-4.00718487,1.594494985,2.208121111,-3.802616096,0,0,0,0,0,0
0.4195167470296623,-3.604739141,-4.024376607,1.592611197,2.221946677,-3.814557874,0,0,0,0,0,0
0.42130199531420104,-3.624020359,-4.045412069,1.601359182,2.233357032,-3.834716214,0,0,0,0,0,0
0.4141705878648741,-3.633947989,-4.048204542,1.609888701,2.231187565,-3.841076265,0,0,0,0,0,0
0.4369437143278743,-3.607124961,-4.04414601,1.585090623,2.240544862,-3.825635486,0,0,0,0,0,0
0.4570746226230041,-3.575382564,-4.032497806,1.559153971,2.244786214,-3.803940185,0,0,0,0,0,0
0.4697308291665301,-3.57023801,-4.040046168,1.55025359,2.254888499,-3.805142089,0,0,0,0,0,0
0.46253952067530735,-3.564889393,-4.02751983,1.551174936,2.245029675,-3.796204612,0,0,0,0,0,0
0.47736578377045774,-3.548759775,-4.026187697,1.535696996,2.25177674,-3.787473736,0,0,0,0,0,0
0.5165146347334243,-3.552276172,-4.068889254,1.517880769,2.292701944,-3.810582713,0,0,0,0,0,0
0.5142354595558551,-3.592872988,-4.107219133,1.539318764,2.310727296,-3.850046061,0,0,0,0,0,0
0.49739760021186447,-3.640435546,-4.137909501,1.571518973,2.317653551,-3.889172524,0,0,0,0,0,0
0.45893073446863214,-3.626435273,-4.085475399,1.583752269,2.272203067,-3.855955336,0,0,0,0,0,0
0.42581045844999277,-3.583810594,-4.009704597,1.579000068,2.217757528,-3.796757596,0,0,0,0,0,0
0.45176269404661057,-3.55942908,-4.011250398,1.553833193,2.231506546,-3.785339739,0,0,0,0,0,0
0.48571911130167716,-3.568263338,-4.054076883,1.541272113,2.269897997,-3.81117011,0,0,0,0,0,0
0.4910083332873642,-3.577889081,-4.069013876,1.543440374,2.280011105,-3.823451479,0,0,0,0,0,0
0.5278624482516983,-3.56688248,-4.094863184,1.519510016,2.311362816,-3.830872832,0,0,0,0,0,0
0.5562627344166311,-3.582545763,-4.138888636,1.513141514,2.347575685,-3.8607172,0,0,0,0,0,0
0.4713684624406059,-3.623682279,-4.095117202,1.576156908,2.283242832,-3.859399741,0,0,0,0,0,0
0.4082216861627457,-3.631308449,-4.039625896,1.611543381,2.223923791,-3.835467172,0,0,0,0,0,0
0.4217144157694574,-3.597158919,-4.018979821,1.587722252,2.220347118,-3.80806937,0,0,0,0,0,0
0.4609876468535077,-3.548568423,-4.009627621,1.543790388,2.235307634,-3.779098022,0,0,0,0,0,0
0.4850444640101067,-3.523944832,-4.009035163,1.519450184,2.247039814,-3.766489998,0,0,0,0,0,0
0.4880998893346661,-3.535141759,-4.023311898,1.523520935,2.255705894,-3.779226829,0,0,0,0,0,0
0.5015918169635131,-3.545422929,-4.047093092,1.521915556,2.274342455,-3.796258011,0,0,0,0,0,0
0.5276929737873457,-3.568495872,-4.096273745,1.520401449,2.31198336,-3.832384809,0,0,0,0,0,0
0.5495800377916238,-3.638245629,-4.187873395,1.544332796,2.368726717,-3.913059512,0,0,0,0,0,0
0.47537678050008675,-3.68249029,-4.157915733,1.603556755,2.316646257,-3.920203012,0,0,0,0,0,0
0.36874878122981036,-3.652961332,-4.021814566,1.642106276,2.195281674,-3.837387949,0,0,0,0,0,0
0.380177564,-3.622725214,-4.002978435,1.621273825,2.191578,-3.812851825,0,0,0,0,0,0
0.4283222321579324,-3.606896653,-4.035291873,1.58928721,2.231807053,-3.821094263,0,0,0,0,0,0
0.4329894970677721,-3.593264526,-4.026361245,1.580137515,2.229675371,-3.809812886,0,0,0,0,0,0
0.41702080007384185,-3.591608568,-4.008687192,1.587293884,2.212853996,-3.80014788,0,0,0,0,0,0
0.405554822,-3.581476187,-3.987060211,1.587960682,2.196307517,-3.784268199,0,0,0,0,0,0
0.41055976534299016,-3.548246748,-3.958893018,1.568843491,2.184726392,-3.753569883,0,0,0,0,0,0
0.4296556557714373,-3.516733586,-3.946506706,1.543538965,2.188081181,-3.731620146,0,0,0,0,0,0
0.4314773821989552,-3.438573893,-3.87012273,1.503548255,2.150800056,-3.654348311,0,0,0,0,0,0
0.39090746063193504,-3.345590735,-3.736590839,1.477341637,2.06374915,-3.541090787,0,0,0,0,0,0
0.29530499617186656,-3.321367336,-3.616774154,1.51303117,1.956039575,-3.469070745,0,0,0,0,0,0
0.14828503206349095,-3.35690308,-3.50525393,1.604309024,1.826769481,-3.431078505,0,0,0,0,0,0
-0.009691247,-3.401106724,-3.391480241,1.705398986,1.690894497,-3.396293483,0,0,0,0,0,0
-0.189177257,-3.462689562,-3.273593714,1.82593341,1.542208228,-3.368141638,0,0,0,0,0,0
-0.417065116,-3.551034915,-3.13407162,1.984050016,1.358503252,-3.342553268,0,0,0,0,0,0
-0.63084324,-3.681927368,-3.051186328,2.156385304,1.210171544,-3.366556848,0,0,0,0,0,0
-0.639679663,-3.641617479,-3.002021284,2.140648571,1.181170811,-3.321819381,0,0,0,0,0,0
-0.482768064,-3.398621364,-2.915939041,1.940694714,1.216585489,-3.157280203,0,0,0,0,0,0
-0.324470759,-3.230106186,-2.905726244,1.777288472,1.290627742,-3.067916215,0,0,0,0,0,0
-0.133773228,-3.138246672,-3.004543271,1.63600995,1.435385021,-3.071394971,0,0,0,0,0,0
0.066812118,-3.081111065,-3.147980802,1.507149473,1.60739646,-3.114545933,0,0,0,0,0,0
0.2588401608297667,-3.008458131,-3.267362228,1.374808985,1.763101194,-3.13791018,0,0,0,0,0,0
0.4101292726376845,-2.971172943,-3.381365885,1.280521835,1.895747579,-3.176269414,0,0,0,0,0,0
0.506695294,-3.070807384,-3.577584484,1.282056045,2.042139889,-3.324195934,0,0,0,0,0,0
0.5846018804086781,-3.174696419,-3.759392729,1.295047269,2.171997305,-3.467044574,0,0,0,0,0,0
0.6607340130578011,-3.266712695,-3.927555574,1.302989341,2.294144793,-3.597134134,0,0,0,0,0,0
0.6998629992347501,-3.398515204,-4.098462344,1.349326102,2.399162672,-3.748488774,0,0,0,0,0,0
0.7444639498157161,-3.476122031,-4.220665096,1.365829041,2.482564523,-3.848393564,0,0,0,0,0,0
0.7838415782705916,-3.551764943,-4.335705115,1.383961682,2.559773347,-3.943735029,0,0,0,0,0,0
0.8291142840786716,-3.573989832,-4.403164145,1.372437774,2.616139215,-3.988576988,0,0,0,0,0,0
0.8626448754788592,-3.555685761,-4.41840181,1.346520443,2.640523343,-3.987043786,0,0,0,0,0,0
0.8363177072422402,-3.626862414,-4.463269756,1.395272353,2.649793732,-4.045066085,0,0,0,0,0,0
0.7920369263371234,-3.712211325,-4.50430319,1.460087199,2.648170058,-4.108257257,0,0,0,0,0,0
0.742057065,-3.730373413,-4.472500228,1.494158174,2.607278647,-4.10143682,0,0,0,0,0,0
0.740462479,-3.704860942,-4.445412018,1.482199231,2.592937248,-4.07513648,0,0,0,0,0,0
0.7748522942959156,-3.662336807,-4.437258176,1.443742257,2.606055235,-4.049797492,0,0,0,0,0,0
0.7793086468484127,-3.634254423,-4.413622987,1.427472888,2.596465817,-4.023938705,0,0,0,0,0,0
0.7583556984353771,-3.633123264,-4.391532826,1.437383783,2.574944262,-4.012328045,0,0,0,0,0,0
0.7362380950940441,-3.609269305,-4.345556131,1.436515605,2.540897113,-3.977412718,0,0,0,0,0,0
0.7296709281037687,-3.590140344,-4.319879817,1.430234708,2.524775373,-3.955010081,0,0,0,0,0,0
0.6866254416989398,-3.629093595,-4.315777592,1.471234077,2.501201517,-3.972435593,0,0,0,0,0,0
0.6263383025837885,-3.625321102,-4.251713448,1.4994914,2.439025876,-3.938517275,0,0,0,0,0,0
0.5867299306402516,-3.56308221,-4.149897891,1.48817614,2.368313911,-3.856490051,0,0,0,0,0,0
0.5341309468104419,-3.511993421,-4.046205949,1.488931237,2.290168448,-3.779099685,0,0,0,0,0,0
0.5291278103879162,-3.497485961,-4.026672933,1.484179075,2.277900372,-3.762079447,0,0,0,0,0,0
0.565710913,-3.513777643,-4.079575145,1.474033365,2.322643029,-3.796676394,0,0,0,0,0,0
0.5271536537199721,-3.52912156,-4.056374592,1.500983953,2.291764123,-3.792748076,0,0,0,0,0,0
0.41514598651882006,-3.560097761,-3.975322949,1.572475887,2.195234468,-3.767710355,0,0,0,0,0,0
0.36129678323369413,-3.607164012,-3.968566437,1.622933614,2.16493161,-3.787865224,0,0,0,0,0,0
0.39212673073185517,-3.610844421,-4.00305333,1.609358845,2.197590031,-3.806948876,0,0,0,0,0,0
0.4188160379508868,-3.566234449,-3.985119661,1.573709206,2.201967849,-3.775677055,0,0,0,0,0,0
0.4324259588241439,-3.533003839,-3.965506524,1.55028894,2.198966242,-3.749255182,0,0,0,0,0,0
0.4585920144359072,-3.529412037,-3.988081118,1.535410011,2.223336566,-3.758746577,0,0,0,0,0,0
0.47843837128445715,-3.522479016,-4.001003476,1.522020322,2.239720924,-3.761741246,0,0,0,0,0,0
0.47624869723335084,-3.493626833,-3.969952312,1.508689068,2.223100505,-3.731789573,0,0,0,0,0,0
0.4707099827365697,-3.529651052,-4.000449305,1.529470535,2.235579644,-3.765050178,0,0,0,0,0,0
0.4347365434180793,-3.576746176,-4.011565662,1.571004816,2.223151103,-3.794155919,0,0,0,0,0,0
0.38456017682908417,-3.598646824,-3.983245811,1.607043324,2.183902994,-3.790946318,0,0,0,0,0,0
0.37951565342413046,-3.571946756,-3.951533718,1.596215551,2.165524686,-3.761740237,0,0,0,0,0,0
0.4110931929615412,-3.524511798,-3.935722355,1.556709303,2.173407774,-3.730117076,0,0,0,0,0,0
0.42383397641470544,-3.528833993,-3.952797624,1.552500008,2.1883158,-3.740815808,0,0,0,0,0,0
0.4364050832936531,-3.514807426,-3.951336282,1.539201171,2.193870683,-3.733071854,0,0,0,0,0,0
0.4425318369437744,-3.490140008,-3.932754603,1.523804086,2.18764322,-3.711447306,0,0,0,0,0,0
0.4201327617094364,-3.522108102,-3.942327016,1.55098767,2.181229889,-3.732217559,0,0,0,0,0,0
0.439109552,-3.548808342,-3.987994995,1.554849395,2.213552274,-3.768401668,0,0,0,0,0,0
0.45955755557943195,-3.566763079,-4.026396597,1.553602762,2.242977076,-3.796579838,0,0,0,0,0,0
0.4590126877419059,-3.561257086,-4.020361319,1.551122199,2.239687004,-3.790809203,0,0,0,0,0,0
0.44906944782728114,-3.521218705,-3.970360792,1.536074628,2.20971512,-3.745789749,0,0,0,0,0,0
0.41856920258449093,-3.498119607,-3.916769982,1.539775202,2.167669592,-3.707444794,0,0,0,0,0,0
0.41756824167403994,-3.500844216,-3.918495855,1.541637987,2.168032048,-3.709670035,0,0,0,0,0,0
0.4265077548280969,-3.502755614,-3.92932844,1.538123929,2.177918098,-3.716042027,0,0,0,0,0,0
0.42356794912767065,-3.50137683,-3.925018959,1.53890444,2.174293454,-3.713197894,0,0,0,0,0,0
0.41418090620735143,-3.51836745,-3.932613502,1.552093272,2.173397204,-3.725490476,0,0,0,0,0,0
0.4105214341960914,-3.55373618,-3.964304581,1.571607373,2.187413008,-3.75902038,0,0,0,0,0,0
0.42806117940863053,-3.569835591,-3.997956274,1.570887206,2.213008727,-3.783895932,0,0,0,0,0,0
0.4690664846478031,-3.520395301,-3.989532063,1.525664408,2.229299274,-3.754963682,0,0,0,0,0,0
0.49926832447264924,-3.475125307,-3.974458259,1.487928491,2.236863292,-3.724791783,0,0,0,0,0,0
0.4722449851787862,-3.491483046,-3.963805199,1.50961903,2.218025092,-3.727644122,0,0,0,0,0,0
0.4242386570180496,-3.482414979,-3.906732472,1.529088161,2.165485564,-3.694573725,0,0,0,0,0,0
0.41846569449190185,-3.45909213,-3.8776116,1.520313218,2.148038647,-3.668351865,0,0,0,0,0,0
0.45110919687173723,-3.468362995,-3.919535539,1.508626899,2.185322368,-3.693949267,0,0,0,0,0,0
0.43969016750357054,-3.506147274,-3.945916198,1.533228553,2.192803183,-3.726031736,0,0,0,0,0,0
0.3817242440778617,-3.560904098,-3.942702971,1.589589927,2.162213607,-3.751803534,0,0,0,0,0,0
0.35439994750609827,-3.545391575,-3.899851689,1.595495814,2.127125818,-3.722621632,0,0,0,0,0,0
0.38325141045936656,-3.491770757,-3.875075062,1.554259673,2.129163236,-3.683422909,0,0,0,0,0,0
0.3973916451560226,-3.482605735,-3.880064326,1.542607045,2.138727986,-3.681335031,0,0,0,0,0,0
0.40133717510086264,-3.475676423,-3.877072124,1.537169624,2.13920465,-3.676374274,0,0,0,0,0,0
0.4055165654093563,-3.466390104,-3.871970886,1.53043677,2.138743726,-3.669180495,0,0,0,0,0,0
0.3982819674214223,-3.469510837,-3.867864256,1.535614435,2.133073112,-3.668687547,0,0,0,0,0,0
0.385366328,-3.506335547,-3.891749019,1.56048461,2.138557673,-3.699042283,0,0,0,0,0,0
0.37338119200199327,-3.554127128,-3.927575985,1.590372968,2.150478588,-3.740851556,0,0,0,0,0,0
0.3626591007381166,-3.527938587,-3.890691702,1.582639743,2.126675402,-3.709315145,0,0,0,0,0,0
0.3573606828580992,-3.478235037,-3.835670071,1.560437177,2.096515377,-3.656952554,0,0,0,0,0,0
0.37783143533862984,-3.447768684,-3.825674359,1.534968624,2.101752897,-3.636721522,0,0,0,0,0,0
0.4053843265667714,-3.433068585,-3.838534652,1.513842129,2.121959489,-3.635801618,0,0,0,0,0,0
0.4217871468054592,-3.436797108,-3.858666831,1.50750498,2.140226989,-3.647731969,0,0,0,0,0,0
0.4071917554210094,-3.474029355,-3.881316763,1.5334188,2.144254259,-3.677673059,0,0,0,0,0,0
0.3634738515727336,-3.491322359,-3.854862573,1.563924254,2.109168212,-3.673092466,0,0,0,0,0,0
0.3405146266553094,-3.51419665,-3.854746616,1.586841012,2.097630621,-3.684471633,0,0,0,0,0,0
0.34642870554807315,-3.524409362,-3.870895918,1.588990328,2.108662312,-3.69765264,0,0,0,0,0,0
0.3623605047149946,-3.471514391,-3.833957759,1.554576943,2.098159132,-3.652736075,0,0,0,0,0,0
0.3714473091012475,-3.434177456,-3.805696934,1.531365074,2.088572122,-3.619937195,0,0,0,0,0,0
0.3741676886896617,-3.429445619,-3.803650893,1.527638965,2.088909291,-3.616548256,0,0,0,0,0,0
0.4035954406574893,-3.427042457,-3.830688618,1.511723508,2.117142029,-3.628865538,0,0,0,0,0,0
0.4290204565918048,-3.423140045,-3.852235148,1.497059794,2.140627802,-3.637687597,0,0,0,0,0,0
0.41091700109576523,-3.432690949,-3.843683182,1.510886974,2.127300092,-3.638187066,0,0,0,0,0,0
0.37872755250127427,-3.454443426,-3.833265943,1.537857937,2.105996748,-3.643854684,0,0,0,0,0,0
0.32735423414060466,-3.491620151,-3.81906854,1.582132958,2.073211387,-3.655344346,0,0,0,0,0,0
0.32829000811972375,-3.474442234,-3.802828251,1.573076113,2.065559129,-3.638635242,0,0,0,0,0,0
0.37119797038856944,-3.42142485,-3.792688527,1.52511344,2.081943249,-3.607056689,0,0,0,0,0,0
0.37522598699462917,-3.414345505,-3.789605696,1.519559759,2.082415842,-3.601975601,0,0,0,0,0,0
0.36550154445093336,-3.401777564,-3.767316175,1.51813801,2.06640886,-3.58454687,0,0,0,0,0,0
0.3543706105359013,-3.39778965,-3.752243715,1.52170952,2.053307163,-3.575016682,0,0,0,0,0,0
0.34422064524214946,-3.395116853,-3.739426773,1.525448104,2.041823709,-3.567271813,0,0,0,0,0,0
0.35139801646080904,-3.38245954,-3.73391553,1.515530762,2.042656773,-3.558187535,0,0,0,0,0,0
0.33955719142761887,-3.43041967,-3.770044046,1.545431239,2.054800619,-3.600231858,0,0,0,0,0,0
0.3372352739143153,-3.433209533,-3.770549552,1.54798713,2.053892413,-3.601879542,0,0,0,0,0,0
0.3371332802144044,-3.384806431,-3.722024838,1.523836575,2.029579059,-3.553415634,0,0,0,0,0,0
0.35403558589790984,-3.375281542,-3.729392756,1.510622978,2.041714171,-3.552337149,0,0,0,0,0,0
0.3825681107688432,-3.362170494,-3.74479308,1.489801192,2.063680595,-3.553481787,0,0,0,0,0,0
0.3802479129031139,-3.353633877,-3.733960278,1.486692982,2.057104095,-3.543797077,0,0,0,0,0,0
0.349405459,-3.350827783,-3.700331208,1.500711162,2.024868334,-3.525579496,0,0,0,0,0,0
0.345696706,-3.348749286,-3.694509832,1.50152629,2.020103269,-3.521629559,0,0,0,0,0,0
0.3216986326664094,-3.380913191,-3.702653272,1.529607279,2.012175952,-3.541783231,0,0,0,0,0,0
0.27212069335316263,-3.406795228,-3.67896638,1.567337267,1.975543537,-3.542880804,0,0,0,0,0,0
0.30407939350294394,-3.373350786,-3.677522682,1.534635696,1.990801038,-3.525436734,0,0,0,0,0,0
0.3612738612366971,-3.336112635,-3.697481976,1.487419387,2.029377919,-3.516797306,0,0,0,0,0,0
0.3815176987766472,-3.312089868,-3.693675492,1.465286085,2.037596595,-3.50288268,0,0,0,0,0,0
0.32533547830994447,-3.310654024,-3.636054032,1.492659273,1.980694755,-3.473354028,0,0,0,0,0,0
0.2860050836178966,-3.301831635,-3.587912632,1.507913276,1.936958858,-3.444872133,0,0,0,0,0,0
0.32113394568989595,-3.300362802,-3.621561832,1.489614428,1.971347889,-3.460962317,0,0,0,0,0,0
0.30182159033429884,-3.33307335,-3.634983017,1.51562588,1.968402304,-3.484028184,0,0,0,0,0,0
0.26110255785538544,-3.35366621,-3.614867245,1.546281826,1.937984901,-3.484266728,0,0,0,0,0,0
0.2601786416292995,-3.319893563,-3.580159701,1.529857461,1.920169171,-3.450026632,0,0,0,0,0,0
0.28629620732856503,-3.265126086,-3.55151612,1.489414939,1.918906164,-3.408321103,0,0,0,0,0,0
0.3182634343196101,-3.237035244,-3.555359385,1.459385905,1.93681141,-3.396197314,0,0,0,0,0,0
0.3101686704656974,-3.223502483,-3.533705418,1.456666906,1.921937044,-3.378603951,0,0,0,0,0,0
0.2850864094141451,-3.224611544,-3.509782731,1.469762567,1.89743457,-3.367197137,0,0,0,0,0,0
0.27959248838177575,-3.228538602,-3.50824011,1.474473057,1.893916299,-3.368389356,0,0,0,0,0,0
0.28686679689452216,-3.240541405,-3.52745716,1.476837304,1.907161979,-3.383999283,0,0,0,0,0,0
0.2919281098605952,-3.277935735,-3.569928892,1.493003812,1.930928501,-3.423932313,0,0,0,0,0,0
0.28820483057989904,-3.284631705,-3.572929315,1.498213437,1.930567073,-3.42878051,0,0,0,0,0,0
0.2846943828616414,-3.241538658,-3.526307236,1.478422138,1.905500809,-3.383922947,0,0,0,0,0,0
0.3062947346418214,-3.201328886,-3.507700016,1.447517076,1.906997375,-3.354514451,0,0,0,0,0,0
0.3145022440784777,-3.184445286,-3.499028281,1.434971521,1.906765262,-3.341736783,0,0,0,0,0,0
0.2774478126119631,-3.182219051,-3.459768977,1.452385619,1.868608395,-3.320994014,0,0,0,0,0,0
0.26487915823529856,-3.184979427,-3.449962097,1.460050134,1.857420627,-3.317470762,0,0,0,0,0,0
0.2686825054901837,-3.200353209,-3.469128652,1.465835352,1.868905579,-3.334740931,0,0,0,0,0,0
0.2597151607815003,-3.222751753,-3.482548875,1.481518296,1.871132018,-3.352650314,0,0,0,0,0,0
0.24716234898520703,-3.243592609,-3.49080751,1.49821513,1.86898493,-3.367200059,0,0,0,0,0,0
0.26283426704784313,-3.222691071,-3.485571842,1.479928402,1.874203055,-3.354131457,0,0,0,0,0,0
0.29761486759460143,-3.186305866,-3.48396301,1.444345499,1.890788939,-3.335134438,0,0,0,0,0,0
0.32732048314825524,-3.154189848,-3.481548093,1.413434682,1.904434288,-3.317868971,0,0,0,0,0,0
0.3051469672297817,-3.163158915,-3.468395732,1.429005974,1.88677135,-3.315777324,0,0,0,0,0,0
0.26463548434643214,-3.207911259,-3.472633168,1.471637887,1.868634326,-3.340272213,0,0,0,0,0,0
0.2810134769664702,-3.230495712,-3.511601638,1.474741118,1.896307557,-3.371048675,0,0,0,0,0,0
0.2883979352078313,-3.254559136,-3.543046057,1.483080601,1.915721996,-3.398802596,0,0,0,0,0,0
0.25379413093817377,-3.292591126,-3.546473513,1.519398497,1.900133822,-3.419532319,0,0,0,0,0,0
0.23366134177598286,-3.287899637,-3.521644902,1.527119148,1.877653122,-3.404772269,0,0,0,0,0,0
0.2535667575007503,-3.262535334,-3.516178088,1.504484288,1.884872423,-3.389356711,0,0,0,0,0,0
0.2660415228272906,-3.259992508,-3.526116377,1.496975493,1.89607895,-3.393054442,0,0,0,0,0,0
0.286265132,-3.262171694,-3.548499293,1.487953281,1.917382212,-3.405335493,0,0,0,0,0,0
0.3400086592990757,-3.274131842,-3.614231856,1.467061591,1.977120258,-3.444181849,0,0,0,0,0,0
0.38020803862911484,-3.33291683,-3.713212306,1.476354396,2.046710172,-3.523064568,0,0,0,0,0,0
0.3486168468720726,-3.371368107,-3.720028656,1.51137563,2.034322751,-3.545698381,0,0,0,0,0,0
0.2957558875440948,-3.397637711,-3.693452871,1.550940912,1.994604379,-3.545545291,0,0,0,0,0,0
0.23873742841858878,-3.417817352,-3.656615641,1.589539962,1.947676535,-3.537216496,0,0,0,0,0,0
0.22658133697865754,-3.406164602,-3.632805707,1.589791633,1.929693522,-3.519485155,0,0,0,0,0,0
0.26188420404581164,-3.396670697,-3.658630027,1.567393246,1.960257115,-3.527650362,0,0,0,0,0,0
0.3048740838149474,-3.392561749,-3.697492433,1.543843832,2.001183258,-3.545027091,0,0,0,0,0,0
0.3326660808607797,-3.409441197,-3.742170331,1.538387558,2.037418206,-3.575805764,0,0,0,0,0,0
0.3521042945055735,-3.434343815,-3.786531221,1.54111976,2.069317758,-3.610437518,0,0,0,0,0,0
0.36755933529443563,-3.469317228,-3.836958592,1.550878947,2.102258964,-3.65313791,0,0,0,0,0,0
0.3627490099425851,-3.530268698,-3.893093089,1.583759844,2.127921049,-3.711680893,0,0,0,0,0,0
0.32149317783924164,-3.551816155,-3.873360783,1.615161488,2.09742698,-3.712588469,0,0,0,0,0,0
0.30124458184887354,-3.524095432,-3.825388331,1.611425425,2.063316456,-3.674741881,0,0,0,0,0,0
0.3467634283669743,-3.50438524,-3.851206964,1.578810906,2.098985196,-3.677796102,0,0,0,0,0,0
0.3903387985438941,-3.479827203,-3.870201223,1.544744202,2.130270011,-3.675014213,0,0,0,0,0,0
0.4159538319937239,-3.477397691,-3.893428886,1.530721929,2.154691359,-3.685413288,0,0,0,0,0,0
0.41915977859332954,-3.507245707,-3.926516306,1.544042964,2.172838042,-3.716881006,0,0,0,0,0,0
