I,II,III,aVR,aVL,aVF,V1,V2,V3,V4,V5,V6
-0.4408814103461118,-0.06547556865950534,0.26624837054887857,0.557795307989394,-0.3358633220632485,0.17437537728445476,0.004675894151121513,-0.0593222588599818,0.004744494202955978,0.0031623352736655547,-0.04148152747688699,-0.27588928601100365
-0.4997402937381215,-0.0595723229309698,0.3091852384573656,0.6257872289342121,-0.3944937322429991,0.18359288572660598,0.009038170186953774,-0.08438526736621707,0.008565877684984681,-0.022492792512493198,-0.09685468086149435,-0.29725491096865597
-0.47256513861066535,-0.08605740116836692,0.2773682871139253,0.47197692509501643,-0.33669174826382076,0.17435265588972274,-0.0035748032138162213,-0.07879548429885769,-0.0024220313494996643,0.010083539990486452,-0.09416503608106798,-0.2481142766031745
-0.4426914595335286,-0.10946131004097401,0.2452746779719584,0.3245119295501674,-0.2811437100802175,0.16988533467714836,-0.010981367527949435,-0.06657191647627074,-0.008600433758285574,0.06446992640548878,-0.06280604076480144,-0.17321474647766635
-0.430575451911217,-0.09373337181612676,0.24498848182287442,0.2919720013012714,-0.28338757316922514,0.17465070380003567,-0.0015715939030528528,-0.06280352109530306,-0.0002059031625257574,0.0956126254562095,-0.034145550788338905,-0.10868562434083981
-0.39392062874149364,-0.002304552067895097,0.2662549346092815,0.3634537915039204,-0.33586487271678783,0.1743931041743087,0.025689259836706686,-0.07364683656780513,0.02266581229979254,0.04991421348738406,-0.04147524797916725,-0.08203929283713628
-0.3600532887376994,0.08138522482884175,0.28550732377110283,0.3226686734157681,-0.3404129395476344,0.22638607211582865,0.026478642757181925,-0.073693156979808,0.014193248547701808,0.019925279931201592,-0.023057481167169762,-0.12979138725615044
-0.3395191799699126,0.12858355004926197,0.29539152720311934,0.23700706063874355,-0.33001596318549425,0.25862159365650084,0.030932866979533374,-0.07732550670992692,0.004248880377732627,0.048029162078582814,-0.003574855059638861,-0.12482586941110344
-0.31311849808586856,0.12538748766903804,0.27585580875673127,0.1857119826783584,-0.30498773560759335,0.23631653102603567,0.04004046652820205,-0.08333008776778747,0.002940510070432403,0.08049352622425697,-0.0009199969947035804,-0.10329304627254642
-0.28851780246960734,0.07498998831055693,0.23371641107480534,0.20060905497613252,-0.27475298186658853,0.17292033336925353,0.048886536257525,-0.08569167373093514,0.011568322289565424,0.08487096187407281,-0.010434959280775135,-0.09966044059003837
-0.30007488299506396,-0.0023361363526092317,0.20253057502840105,0.2663421242283916,-0.25782477003068494,0.12984905151021178,0.04671036997875721,-0.07363447420286727,0.022678215069645503,0.0499112589076475,-0.0050536533202130895,-0.1466235736768332
-0.36051267797699443,-0.00680960143747881,0.2413015163101401,0.32243734973363003,-0.30673076382676684,0.1568301716327073,0.058856998305647744,-0.05552822622751853,0.03663059518295348,0.03058390094588674,0.018973869225644247,-0.11505046007325104
-0.3989681495841052,-0.014234815558875728,0.26365952859175934,0.4011931181487902,-0.3320433325906104,0.17262016115896853,0.06440575273351301,-0.04349992439122585,0.03219897621855054,0.03189487058234117,0.03120491848395031,-0.07911794264834299
-0.43415838356366243,-0.044916889726221994,0.27206164241455605,0.5111934170034,-0.34239863400429427,0.178343237216188,0.053996965420545245,-0.04424012338828929,0.015149080116081562,0.04388061795865153,0.03286776303508298,-0.07570768376114093
-0.47783295889842287,-0.0807043366101749,0.2836464537716784,0.6200645389554942,-0.3587090562489219,0.1861261515987302,0.03386815266759772,-0.05700142162707273,-0.0010344814966859643,0.05455082423165115,0.029587922678999245,-0.10817523979302597
-0.5347630464096368,-0.06542681385413068,0.330005761816208,0.6548426961421538,-0.41394834904919725,0.21893078613415307,0.025702662479099345,-0.0736398297288282,0.004758516651898729,0.049905033208072526,0.03134483529709867,-0.14668868917296762
-0.5182708364339107,-0.01776086579955448,0.3428699094672605,0.5409710698677709,-0.42678136594473803,0.2293769261559787,0.03906910683180053,-0.06680491695971752,0.01846779756824999,0.03093346894911146,0.034652269708546506,-0.18930119682457658
-0.46503173245898777,-0.009313321646768586,0.3109918691160617,0.43967800556019615,-0.3941744047237739,0.2036446889418432,0.04606144990447162,-0.056327508292474945,0.02098351128676502,0.03458848399607394,0.02254133367128384,-0.2085117347805049
-0.41265741599227823,-0.000786729401605586,0.27974079801961443,0.37715931599835895,-0.35260401517012707,0.18367939937784808,0.04827082930633781,-0.04731218752510599,0.02303765922340143,0.04364246041334813,0.004196220881635222,-0.2157575193154523
-0.38532685817130974,0.024481020435968618,0.27394135678378856,0.357610978166905,-0.3279990612722549,0.18939143941336095,0.05191143985977528,-0.04304296421242091,0.029729169306960627,0.049071984809271066,-0.009310502363026833,-0.22967412769565906
-0.3939801509772345,0.060760727572635995,0.2981284771300579,0.3635497743798744,-0.3359036037552072,0.21892384339003054,0.0677375337965279,-0.045022708454576836,0.040581835563473743,0.04995201996660471,-0.005064336133995174,-0.2759072883425002
-0.4291579953332659,0.025073996642296037,0.3039960191270404,0.42373293865106554,-0.3654401543839161,0.22166768127856892,0.0841271425876842,-0.06336239784982042,0.03246311727626388,0.07017638746606862,-0.0008837480667722691,-0.2891074979123488
-0.42075593431737013,-0.0022642759488995514,0.2844927713289889,0.4458514279260153,-0.3580798844410933,0.2120945233711157,0.0834932981903851,-0.07045492457031069,0.017766605664302992,0.0556287751723896,-0.013939171777065135,-0.2558076235903342
-0.3729598147373073,-0.0077528086599090796,0.2492753259009219,0.3948360994743242,-0.31824501790549387,0.18472643334510827,0.07305997233363457,-0.0652121953077532,0.007578762691855678,0.02207387367548782,-0.03354741316498723,-0.22585927283075585
-0.3148706977154224,0.0013973892198932479,0.2144594606387277,0.3025013501117586,-0.27022281109643026,0.14916566106338622,0.059041101320148504,-0.05865849420785855,0.004889632290695045,-0.010955697250833597,-0.05470094777870494,-0.2291579870520382
-0.3000899579724593,-0.0023339155632652385,0.20254192985725883,0.2664254252999499,-0.25783829527286894,0.1298858778947054,0.04666141154812649,-0.07371027309213991,0.004742587182976253,-0.020265531965343593,-0.07796724692876712,-0.2759620430765195
-0.3331080577053366,-0.0028205865680284805,0.22471104897792413,0.3377279240780845,-0.2853345998564163,0.16228068308763727,0.022801047470933148,-0.11093140234928732,0.0036239292628715922,-0.04772768092882136,-0.12151030611504243,-0.31864133770804925
-0.3361242888131573,-0.0035592344964982623,0.22638581358658244,0.3352512342350206,-0.2876977073566306,0.16045899008990164,-0.001333847393684215,-0.13072872849189723,0.006139555687982711,-0.06727150050419935,-0.15944927928084082,-0.34163500452595924
-0.3131105464848499,-0.001837636460346027,0.21163163264645105,0.2950635337917334,-0.26872083181487827,0.14342965715153755,-0.013816057987168983,-0.1330858516657051,0.0047060459192083594,-0.07067124522144379,-0.1805731853157479,-0.3430429924084799
-0.2777070231439463,0.0005984231798106801,0.18882712127182755,0.2573491056557937,-0.23958368283270065,0.12819936093335432,-0.014817988816920098,-0.12424629529461474,-0.0028078298342038414,-0.06393756747780943,-0.17829979777161709,-0.33443065247891995
-0.25303087059452173,-0.0023583778754926467,0.1705829026665333,0.2662000636784851,-0.21870745065265626,0.12976122758045963,-0.016326949658101456,-0.11660465385595606,-0.013161325347697763,-0.06696098531927352,-0.15062136305418797,-0.3405440955136495
-0.22684625818037313,-0.014721930673277142,0.1465664493026656,0.21545454003433043,-0.19522630961489013,0.09582366996083173,-0.011315069583125559,-0.10885801277362538,-0.004173025396653776,-0.05726669087217949,-0.10436105954180172,-0.35653479262760945
-0.19426576012052832,0.039138699121379114,0.15163570859296155,0.1486439622496595,-0.1773275013954367,0.11367826367875937,0.022903898649416297,-0.0987516939050258,0.00851825792372661,-0.03647730984257977,-0.07178027031383064,-0.29336109141245226
-0.16819400488476127,0.14055967874202238,0.18513031610501215,0.08676640187133992,-0.17762138987252424,0.1819311605573428,0.05329825812037988,-0.0903543213068489,0.019905002578387617,-0.02290272692722581,-0.047396724989535295,-0.19638878042994018
-0.15591351810273815,0.2511922199926128,0.23263698288116821,0.03329068235310633,-0.1957727802943778,0.26782692475336567,0.0621495652002797,-0.0834413458108369,0.029382770065138175,-0.015970835186106515,-0.026483570220771618,-0.12391719270715304
-0.1591905058842277,0.313391689711349,0.2662577130329219,-0.025201632706391582,-0.21875936180775074,0.3080118979122345,0.04675737399026808,-0.07360334752884551,0.04059882764122974,0.0032484981950971674,-0.0050252974663175486,-0.14668611210584878
-0.16110733937974367,0.31856880877175403,0.27017221384709855,-0.031097377946084238,-0.22038344347421351,0.30899586833781767,0.06992252004959063,-0.055388057406470965,0.04307924062829826,0.039350762274955854,0.013720811757602914,-0.16386882426234906
-0.15675273370155604,0.30117163752900483,0.25843455112742886,-0.025986647195620695,-0.2181793195700661,0.3006822250062678,0.08914147718727855,-0.044659477610614604,0.0361100711239545,0.03638339398092292,0.04364717270434541,-0.12287791425087037
-0.15913565477150945,0.26329006322819687,0.24093093412141786,-0.02059414449161915,-0.21771100062983012,0.27363506254448133,0.09251979449434374,-0.0437569211152943,0.026855225254582785,0.01649038397952065,0.058864784051510036,-0.09479995501255602
-0.17525080828259768,0.20482983161060417,0.22236223562687438,-0.0006382575374999685,-0.2194106582106716,0.228191975665292,0.08518449662920875,-0.050710907915082426,0.020976022014687665,-0.00047003276094945167,0.04416374841088858,-0.10745294237484325
-0.2062125987293594,0.12372295823363227,0.20244114010313632,0.07230582767544592,-0.21875273861298025,0.17428839001836732,0.08873527740066484,-0.059364527768407886,0.022650789044453144,0.0031223544744646576,-0.00509177742971156,-0.1465420037076606
-0.23459491711894,0.039794673069298785,0.1793447959484278,0.19313614713628535,-0.2177455812884141,0.14239668358909593,0.09130057481405689,-0.07486136632010663,0.01608381758664211,-0.011535606032548105,-0.013062148438109497,-0.10874313535888708
-0.26183761652423754,-0.008009960024194554,0.17370875478417402,0.28270281478496173,-0.21919200065641234,0.12553715948547883,0.08425151820933041,-0.09313673913991233,-0.005626923045193133,-0.014499742904410855,-0.0005214029604350568,-0.09269364191390254
-0.29133465134986264,-0.059285278598031226,0.16785122132543115,0.35379753998323366,-0.21860452145925005,0.09330092483470341,0.07197677036097071,-0.09991978653140933,-0.022667759085227945,-0.005080973373360761,-0.0033766834278069766,-0.12433952983671921
-0.33122344573440055,-0.15123913005816975,0.14851517639756617,0.4522792281893251,-0.21661269229721491,0.03346093664827594,0.05832919209456422,-0.09133783955200261,-0.02159386873770367,0.00723092610174762,-0.033194107994370704,-0.1846733560947252
-0.39420386753742565,-0.3181912151589871,0.10699869207588951,0.655484316097418,-0.21893314719633192,-0.04826530500754891,0.04673117686775278,-0.07364311322380024,0.004791253948305386,0.003159017440448446,-0.07796831802213611,-0.21123978585214007
-0.48274520625554185,-0.36567632485652535,0.14313733225163108,0.826623921648805,-0.2768310490155209,-0.021243609555383788,0.056211161543042294,-0.07243486349554319,0.020029735404917905,0.0020777724598072876,-0.1025079638868418,-0.20230957725543117
-0.5446386206043939,-0.23221068879349535,0.2525232626514646,0.7649497278925026,-0.3754336707693961,0.0984309930018497,0.07401590806741817,-0.07329340055767791,0.020687883896372418,0.0028547544298974025,-0.11539089922064542,-0.23153182923474946
-0.5746150547846448,-0.07405732970818585,0.35270342740093397,0.6325535974650672,-0.45862785552022667,0.215798895861383,0.08481554590756608,-0.07410935044133479,0.022433834405868307,0.0037436817192491568,-0.11462615800802606,-0.2574796026441627
-0.5707635692220051,0.014290126474685787,0.39468349598621266,0.5418616880172963,-0.49011511959005466,0.2761321268466576,0.08205904411291892,-0.07407826278317556,0.03060126911915961,0.0038629468601057036,-0.10095079859746543,-0.2411912957053898
-0.5344125747842623,-0.0020983648645667135,0.3617338132678818,0.5572541118453482,-0.4527365323289984,0.2634630748677135,0.06767225369440105,-0.0736139125513293,0.040562287890396044,0.003150522108969933,-0.07781830211661221,-0.14631838082096038
-0.42667158406932887,0.06674531956125337,0.3233423048780499,0.39852128279688215,-0.3839207031695036,0.2629546095360907,0.05508144325708326,-0.0639619305601819,0.03158146806182952,-0.0003142790962521324,-0.05590431830476225,-0.05049069347284214
-0.3200972695257239,0.12873864370461222,0.28228498800622104,0.23454452904534345,-0.3148587773581101,0.2538216286654802,0.04196752496027145,-0.0625562401075286,0.01840848977874327,0.011062315143189165,-0.038443203452156106,-0.044056903151260804
-0.267841485324038,0.13231972371996484,0.24861807009374384,0.17523650305321575,-0.27290639151282314,0.2308649467716875,0.029731808907110583,-0.06882865914073301,0.007992346276949855,0.020580057652435313,-0.04012892333929851,-0.11161834911822376
-0.28444675232810757,0.07418335097493114,0.23054557507815687,0.24054169422495203,-0.2687494339838593,0.19929258082627388,0.017983504277465198,-0.07645828244393732,0.003557845511738081,0.018769726321683937,-0.05916944132482082,-0.21138865340377652
-0.3471882206005398,-0.002637220684686733,0.23436210615730213,0.3639278236450693,-0.296899696199759,0.17425951418993865,0.004656388685565851,-0.07363695325188672,0.004752986782134229,0.0031658715721622115,-0.07780394708304861,-0.2758754625804945
-0.40192319232052043,-0.08373060942586054,0.23058655834981032,0.48661429199973805,-0.31618008204743564,0.14336619998850877,-0.0005444777212284808,-0.07100591278128086,0.007017417212117056,0.004108777344042356,-0.05405456966843602,-0.27218963333655116
-0.46463541151066245,-0.12951734513496027,0.2500480205181948,0.5773026526499848,-0.35692974873826394,0.1396412938299055,0.0128574241013347,-0.07797317314038431,-0.0031918488741040176,-0.0036742178491277677,-0.050263230718138485,-0.29377409005683625
-0.5117244783650361,-0.13347176138401537,0.28001899390853086,0.6348392103596235,-0.39317285431261023,0.15990959422442352,0.02105637418768232,-0.08457726080468246,-0.02168615118944827,-0.01308781097725922,-0.06559958375648842,-0.32135730995378337
-0.514651216021444,-0.10427253563210896,0.2967446001534148,0.6400973815207803,-0.39632986127103237,0.18374485979678246,0.016001897449227788,-0.08423488435709947,-0.03705740634252266,-0.014667663016366819,-0.08459258516615398,-0.32719419039176456
-0.44048849674833346,-0.06530337075412004,0.2660685554243331,0.5570118657783114,-0.3356339457071247,0.17424873209858865,0.004784422377202312,-0.07357847569105418,-0.031002205950656194,0.0031743928165226193,-0.07787563244058326,-0.2758276517104304
-0.3444538648914523,-0.023215332712910475,0.22211874206673732,0.3655255320197318,-0.279570541331269,0.1432945379198441,0.031310529635088596,-0.05687379809952776,-0.0061417448671022236,0.0061214572498334684,-0.0736264659479515,-0.2607632014119924
-0.30171340942721553,-0.0035395008951471397,0.2030354939706405,0.27142875486821955,-0.25908648388502453,0.13121318255818382,0.04119616881788245,-0.040262613323328554,0.00015384115775292421,0.0024255355276713068,-0.08090267763559385,-0.28739182534054175
-0.2953385696805245,0.0004216294127050534,0.20070729504982807,0.25321592387164604,-0.25651376629455,0.12877051763008107,0.03404196129298547,-0.033420951241980267,-0.007005364148144831,0.001794335942111359,-0.07868528962990656,-0.2785102166044287
-0.3035982966593246,-0.0026964503964317754,0.2047406229201897,0.2708346462010792,-0.2589325490667833,0.12957154858238804,0.021310897937952836,-0.040314688673374996,-0.016836579447027388,0.004751521189604901,-0.0620611156655307,-0.21773329786391413
-0.29991807338887266,-0.002342135274910266,0.2024210947483794,0.2663389866811553,-0.25769803318499207,0.12984347693785786,0.02569461712854066,-0.0593655576981011,-0.013164116013179437,0.0031591148482520742,-0.04155642319519257,-0.1469488950565486
-0.27383753608161093,-0.0043838098348038665,0.18368541946072373,0.2742611424477918,-0.2366282500446517,0.1327367092094697,0.0269640263492707,-0.06913444171376842,-0.009645286947910867,0.002432537329965291,-0.0584540494867177,-0.21548900117164974
-0.24064479745439937,0.0005967078953402851,0.1636660802089095,0.23727167203155675,-0.20858413257544134,0.1187835039660701,0.026143331921754217,-0.07648015594575945,-0.018950721433237793,6.262856406326174e-05,-0.08868248502236702,-0.29248131016080636
-0.21666260387460717,-0.0015381599011575968,0.14630784580564912,0.19655259804795422,-0.1881873550078692,0.0980885340723416,0.024313110545851706,-0.08421747819388592,-0.026991513461126698,-0.013796309408749222,-0.10621735698505994,-0.33268326798940795
-0.21656636302389565,-0.008443701631140145,0.14275683877516437,0.19294120990490063,-0.18808919795604814,0.09154059164901725,0.019033633530580584,-0.09026153731494582,-0.025781218582367038,-0.03447590428542531,-0.09351005570260146,-0.32193142787913
-0.25325614193605245,-0.002113470460814422,0.17085945179984524,0.2663682803994375,-0.21890432327345383,0.13002204108804405,0.004709378190783598,-0.08789408198788058,-0.013129210060058098,-0.04346221138392866,-0.04122657926581438,-0.27534581321620355
-0.28922851123782006,0.04389596742952012,0.21850372950132907,0.2798616018771671,-0.2500857911714959,0.1701178033757108,0.011724284499993638,-0.07170072896703353,-0.0025489287490921336,-0.014644183693291379,0.012185070953919757,-0.16148826270554215
-0.2952241995128502,0.04324270069616023,0.22224422643668001,0.25959441399119926,-0.2522147487775868,0.15710624447012025,0.036947483547509395,-0.05470003963794636,0.009561172439181495,0.0027971510009242493,0.021200648827757736,-0.062214767478434956
-0.30089870480565706,0.016824705727865864,0.21276155436962663,0.26270947400136896,-0.2579889205680502,0.14110255851656606,0.059364440920421147,-0.047191123529028434,0.018250349095446153,0.0059439219987183975,0.00630148977025743,-0.02348435698375364
-0.3191391904599073,-0.008918010207742199,0.21215032811462717,0.30508236678150136,-0.27694151610807666,0.14668875779438523,0.0692917683391074,-0.050884310831292794,0.018369461730027056,0.0010799372257352562,-0.010374648412802244,-0.04490626575597485
-0.34685839926557155,-0.002492206356295022,0.23421140072891034,0.3635128686033098,-0.29658896764780435,0.17412993123387044,0.06771890851453582,-0.05927940910647679,0.00468314421343164,0.0031691120727003917,-0.005055004386439982,-0.08202357675100343
-0.3225063134961138,-0.033605556421626444,0.2019747309052199,0.3723454028980283,-0.24997012774392433,0.12613704680963503,0.06844760738666597,-0.050900853971133905,-0.00731282373822217,0.004494202177311478,-0.0021155131965552225,-0.08213403100376304
-0.2959871957226328,-0.08019395180486415,0.1604556967989912,0.35463591063850614,-0.21819984780339463,0.0740589310748568,0.06616853746177319,-0.047082803751194384,-0.016402980117388978,-0.0007423374041310157,-0.006318708597129941,-0.08325980303563424
-0.29732517155976196,-0.1191981544588431,0.14167604752678226,0.36453822092152327,-0.21407237541589122,0.04510320302635274,0.06804770216127036,-0.054816015582417305,-0.026494333210886747,-0.014809918125796243,-0.007309294364688987,-0.08347411514222193
-0.33442310569288186,-0.14982359603794018,0.15140181349626566,0.43089826981480817,-0.2338025771939157,0.041237406932802055,0.07636412694661339,-0.07201520618154635,-0.03454240088085932,-0.032915974775995414,-0.011671173685750312,-0.09578788941525732
-0.3941422242869234,-0.19200645926409252,0.17065048960621426,0.5582120429618875,-0.2579548747646996,0.040746003576674246,0.08867016009878517,-0.08798322558619581,-0.03102624750739106,-0.04345324394213191,-0.04176476028175557,-0.14715341425331663
-0.4326467489582401,-0.23708871058773665,0.1740338504750122,0.6346047726070262,-0.2879179480432483,0.04162330157603868,0.07801599340467968,-0.09015517755911845,-0.016788019563680426,-0.016593625538497043,-0.09368487382416879,-0.24033317572938045
-0.42052959304083687,-0.2435998721659911,0.16252134640873908,0.6342294802944891,-0.2788760919155594,0.03803657664803591,0.06346126051454981,-0.08395171612847506,-0.02154278765146559,0.004787057856770995,-0.10911564832626859,-0.2541255133412456
-0.3701204464807919,-0.20768909856677747,0.14642693603674747,0.5791800138274097,-0.23999265242432347,0.041589637051459766,0.049912093184981327,-0.07721288109624529,-0.0389073628785683,0.006174802791564317,-0.1165130891960741,-0.2334679016717864
-0.3036493679279018,-0.14000291836121007,0.13546779095605727,0.4851884672902927,-0.19467352904899524,0.057601531746113,0.038247684762370115,-0.0766830805140929,-0.05500003985148464,-0.008949978232641704,-0.13007384408491368,-0.2248440269141375
-0.252920217072722,-0.06524277819175729,0.1387659384467325,0.3627476115027825,-0.1797250543618104,0.08528214611688009,0.025681996445433574,-0.08803934585872239,-0.04893995805417488,-0.020210222162748193,-0.15067931574574228,-0.27612304515987907
-0.2245876021360865,-0.02507957572682561,0.13980495581160512,0.2385116667132517,-0.18067725331903453,0.08462800224101344,0.02447528211110832,-0.09976593355795217,-0.033728655423724774,-0.01874475709246926,-0.14435069358423624,-0.31645337360990744
-0.19529654851697062,0.018621925514665044,0.141979323831809,0.15073332909892456,-0.17867768403752102,0.10072502036122735,0.025733788221057118,-0.09574555829819018,-0.037249027762283844,-0.022375801789719665,-0.16729413311543165,-0.3489254224814936
-0.16904189784548945,0.09615285018231996,0.16329090042034286,0.08690040489781159,-0.17980645814379728,0.1523541504456097,0.026184637440603054,-0.08143498591309864,-0.044011731755464856,-0.02026647841875872,-0.17509310256219426,-0.3383419131822896
-0.15342460378809275,0.20539567973320325,0.20783084678106292,0.03320840845748683,-0.1908106360143759,0.23218043838939417,0.02542344055217414,-0.06836803601564627,-0.043746507512336746,-0.009952889607467352,-0.1381277387023348,-0.26940835754763176
-0.15948514029985364,0.31328808129313196,0.2664054315632637,-0.02499703820017737,-0.21905138434603535,0.308086290647673,0.02568653370228559,-0.07377333733018876,-0.03114832320739795,0.003153202964991185,-0.04128614044709151,-0.1463521087491347
-0.20823961671638164,0.2984189892260606,0.29199765129606853,0.00604771013577902,-0.267266421926708,0.32059082875988865,0.025286179850252766,-0.09438850713476499,-0.03838367770852576,0.0016651440015540645,-0.009448909425487215,-0.09861028318552545
-0.2852516146490792,0.19426849128904347,0.2917067378649303,0.14161036749321448,-0.3050695570474651,0.2793352551169617,0.026578376508578198,-0.09750431357103759,-0.054373587615798726,0.006555291089233346,-0.004798046044444384,-0.07822984807470656
-0.36213152552020306,0.053510617093429975,0.2728480279142236,0.2991349898039647,-0.32777584442004526,0.20522095649997615,0.025213168663687446,-0.09285077057575651,-0.06441705552448253,0.002459064708124453,-0.008227239663240526,-0.08328361661771623
-0.40877017749901706,-0.07155791054008423,0.24137906769025377,0.4186100060329288,-0.32808195423306064,0.1278622158706692,0.01834741241534064,-0.09081107670302221,-0.0658197975810346,-0.01577434247309934,-0.01668142342268357,-0.10884334212598908
-0.39367681758842554,-0.1283888153225543,0.20244649440211615,0.4606682351486396,-0.2965897199824441,0.08543556067676046,0.004660333264532165,-0.10231432283392941,-0.06702942506276767,-0.04352060168813831,-0.04137543385969768,-0.14660348068523466
-0.35425758327515594,-0.09300200355555129,0.1935482525952773,0.4663357300775106,-0.2599015094003534,0.10853263742619004,0.002258223771557134,-0.10515134102797191,-0.07893000607710242,-0.031299884560678476,-0.024997929690429813,-0.14017827165546065
-0.3632906413343815,-0.05431251980923319,0.21920956901358796,0.439619728075693,-0.28146224205713544,0.13961168262553778,0.005990070481678902,-0.09872969714543231,-0.08166433580536499,-0.020852377117167233,-0.0013893529671393174,-0.16854059551276557
-0.37922087172405755,-0.01386607367656948,0.2504399586862647,0.3865171829257076,-0.3138059460051583,0.16559404552816354,0.0055944033832774544,-0.09000397054249096,-0.07181811076538373,-0.017082360681510984,-0.0011952175117466931,-0.19297938510730273
-0.367364695708931,0.025759230942965776,0.2623926940276064,0.3212805831570425,-0.3168251075458381,0.1783347515226891,0.0016632606438814512,-0.07893673182091605,-0.0521013427487937,-0.014209600239344875,-0.024159107337055598,-0.1892020320745427
-0.29974792472781164,0.06100822517610156,0.2342826452178808,0.26587928923177084,-0.2576859234161008,0.17447171874482903,0.0048508674003950565,-0.059174307676270375,-0.031015131239783923,0.0031809721522764755,-0.04133529671946409,-0.14690533058025465
-0.2578432743335012,0.09016640253821957,0.22055314715763114,0.20361405952793335,-0.24221466676696674,0.18860019390870023,0.03051069440633249,-0.037477266585013685,-0.01799434824023066,0.005914070400564813,-0.019890556143418798,-0.1850676691066047
-0.2730806226164585,0.1498538505489831,0.2610253425953746,0.1810168996473031,-0.2791277874108832,0.24801321205287152,0.05053547115629043,-0.03762643656009934,-0.016567107264842725,0.006212105297888805,-0.003997679382320235,-0.19662791607937868
-0.326287718281919,0.1696773255185171,0.30715187177949765,0.24096097672330777,-0.32091022120852375,0.2866760178476596,0.06437057604971895,-0.05130161718037793,-0.0261161052789532,0.01863982243038786,-0.003358061362134214,-0.1697403434097928
-0.4021692229437738,0.10450806910073356,0.32576987201271634,0.38155556825101095,-0.3498107650586067,0.2661408387280676,0.07070951824570099,-0.06770308773736966,-0.040625616261880916,0.035008747116973556,-0.01855150804962098,-0.13196270085414935
-0.4882908768405787,-0.06637060607769786,0.2979811017174399,0.5586637854212854,-0.37512776782060003,0.17396624485441425,0.06745757018645934,-0.07374177204202062,-0.04901368209214969,0.026208488341423218,-0.0416522255777222,-0.14693360756655582
-0.5525649306674686,-0.19137749881838967,0.2785152961355293,0.6799611334085871,-0.4070430299335516,0.1168240821255141,0.031477816226212256,-0.08700329900800041,-0.04699656107605979,-0.020565650680553337,-0.06549306032766768,-0.18722804429740592
-0.5808917187722955,-0.28886160476136924,0.24853875154665306,0.7911940020541675,-0.39549064303395337,0.05898857724972486,-0.005128161093246104,-0.11379638434205205,-0.05708270261243993,-0.04058270736931804,-0.077271052407031,-0.2249609322733921
-0.5828576619734237,-0.40306279460378003,0.19222859741012802,0.9039351177207836,-0.35473662523679955,-0.01826057434884999,-0.030266485697420086,-0.13566819627169907,-0.07535995109980112,-0.04764288467674829,-0.08045979243019084,-0.26030085320186974
-0.5656195919432331,-0.5325372356679278,0.11517214695663207,1.0018907061639002,-0.3019983912465535,-0.10851782514252095,-0.03986676001582072,-0.13934022807454138,-0.09056565128600921,-0.05809617906329897,-0.08660625642092995,-0.2834494526583022
-0.5345545784591285,-0.6331753499479325,0.043284666226812846,1.0429139008495325,-0.25770183452205075,-0.18178096814942352,-0.03725290659780395,-0.11640472948858338,-0.0847636897103293,-0.09032513940390707,-0.11453514708213143,-0.2758413293428194
-0.5045130726060433,-0.555507451823325,0.062094637239377075,0.9495258581361934,-0.2457582954660655,-0.15492891738298445,-0.024268736179473643,-0.08763845603412612,-0.06971849418118015,-0.08542821942824165,-0.1452840910635986,-0.26944783353443913
-0.4675077248190201,-0.341013529187481,0.1452420843690462,0.7504495275668058,-0.27632772302310593,-0.02488424152851844,-0.013201770505197299,-0.07155448572981718,-0.07062990153196698,-0.052874987603754864,-0.13354936391933858,-0.2823680586667859
-0.37709719453621027,-0.0953640811673737,0.20786092974115886,0.4674013018989177,-0.28580783380688307,0.11524718538698596,0.0004717013800156432,-0.061426766892977144,-0.06604321743874596,-0.028235986904425116,-0.09636002425320248,-0.27480937525462207
-0.23028699627265875,0.11342252536252714,0.2135850645547133,0.15036063561812513,-0.2416434307342309,0.20608565411590518,0.01556791584675819,-0.053156287849439536,-0.04638057906934015,-0.021644249958490454,-0.05635503581013961,-0.2286938196246343
-0.06495402982664036,0.2512111503010667,0.17089748841000402,-0.1234022153129983,-0.14057527186626148,0.2193184171964665,0.025584317690158977,-0.044990982143302334,-0.013152681451564955,-0.019985268472148664,-0.04162578132420386,-0.14651128002985522
-0.022437046782093753,0.37545624942610717,0.20474884777590488,-0.2574070185429789,-0.12676300544794164,0.27011234440646936,0.012236233650864976,-0.04413469895256132,-0.009705622883573494,0.00978438721144998,-0.06002128281029444,-0.12944591073449055
-0.025772048619657227,0.42977618728710965,0.23443166154616832,-0.3076033852129549,-0.1509326240488441,0.30983680960931764,0.0061898688537726215,-0.04725155606804847,-0.01663323499090593,0.022162828823383537,-0.08843056623666067,-0.1780449561121755
-0.05931826820297119,0.39836800971540826,0.2413511999049954,-0.24335415424171714,-0.17625803526087036,0.3142057415114044,0.002914847985705981,-0.05597312736767105,-0.027445141520774964,0.011640126609591735,-0.10639154807605783,-0.24575585036413783
-0.12795338367494913,0.30010784870228324,0.2383467550971737,-0.07036503272363394,-0.20174590602110856,0.2881583957559575,-0.002738133300232744,-0.06722900186357242,-0.03489108209207722,-0.011023156175032372,-0.10330015153525299,-0.29077915259627174
-0.2542684323960047,0.18567066191055107,0.2663335109941017,0.170963491422205,-0.25841527449933593,0.2628849263556334,-0.016259748094383113,-0.07350997745141567,-0.03089109853285602,-0.020193600548422532,-0.07785689793740694,-0.2754852198266166
-0.3989626444485357,0.011683343881924085,0.27673838290406394,0.3938010663123062,-0.33465534092198845,0.19201849972041116,-0.006794186976235761,-0.05678658295317171,-0.004882615640763824,-0.017124263006261443,-0.07344280228208666,-0.22610496487637077
-0.5214112164724113,-0.1995993161768273,0.25321611136756295,0.6572430539345814,-0.3820794933272945,0.10168051940055597,0.010060995984462652,-0.04434909726053472,-0.005170121674219369,-0.027288369392585825,-0.08036507793478474,-0.2286552661892775
-0.5989225845290242,-0.330682297207669,0.23966962086777965,0.8586507270887423,-0.4064613152376225,0.05582255615988409,0.02236056156696689,-0.04284882689163308,-0.01966787386849798,-0.03755113781316084,-0.07866281024350377,-0.25742013680838555
-0.6097245607065227,-0.32667577066037723,0.24902503851771907,0.9124435813726939,-0.40639490291698344,0.0729858284351752,0.02635187075557947,-0.047855518852192254,-0.030169513465698915,-0.037660372128164366,-0.0630111897812945,-0.2836545702852555
-0.5337859181184684,-0.1910064770947957,0.26595420105900897,0.7505305908422728,-0.3742892267390907,0.129879559930387,0.025677209542816434,-0.04490283156661557,-0.013134308027001561,-0.020175538191418495,-0.04147186801529745,-0.2756155303170307
-0.4171701618016741,-0.10254120984019321,0.2314422365075571,0.5637143200843224,-0.30272040723145316,0.1356172973951373,0.024295044380432774,-0.03377322537425863,-0.007807443974678108,-0.015109898427234902,-0.040338619981614456,-0.2434985123001675
-0.3114105104732778,-0.05259858483275937,0.18485518986423427,0.40386174143098463,-0.23702042833037743,0.12293716113620749,0.030463370659816753,-0.03465680566795532,-0.019041091798938738,-0.02774597042606844,-0.035531881263640604,-0.17915408377426426
-0.19786183967804677,-0.01724659610462286,0.12561562745562796,0.23259785192310378,-0.16337709469667414,0.09305812446041119,0.041187447392770256,-0.040966450063798864,-0.028244775854968006,-0.03831104011817913,-0.015641664022452647,-0.11370597319578823
-0.08757175457855998,0.005295378088241071,0.06212215767362083,0.06721609590592739,-0.08557903948819376,0.049006021074799684,0.04985465537395831,-0.046419850587899325,-0.030102551962016347,-0.03640180781221926,0.006136603249846588,-0.08725265556344815
-0.01879499416591617,-0.0023685081297562657,0.011563688412956326,-0.024745017340546665,-0.02393374990987806,-0.003650491421017818,0.046587103470532444,-0.044995515001657514,-0.031205858001555068,-0.020194429577072934,-0.005847809059194911,-0.14745886207445918
-0.07032585090613928,-0.006364406304440903,0.044529095987302134,0.02517739232648694,-0.06431905665387806,0.013610286427501986,0.0336160491640403,-0.04474937500814576,-0.042705316935511294,-0.017454715731681534,-0.09358641434141034,-0.23925711757542897
-0.12060566733834581,-0.001150612089269263,0.08129395223770187,0.09330529047017096,-0.10997321501429673,0.05291383058940292,0.02167792145761425,-0.04452476994302131,-0.048650006250070314,-0.021785121724671213,-0.1607444461382829,-0.25876301087814313
-0.15736535738872992,0.0008377823179598192,0.10725242418550741,0.15350326065099468,-0.1401165478150197,0.08143445642369007,0.00949002668345354,-0.04548937313131382,-0.04990203395631364,-0.02068335995339995,-0.18502753382359208,-0.23354082933911258
-0.20109723229605594,0.010954402325357266,0.14204689991690042,0.20447440103648268,-0.17248073387612387,0.10737837143725121,0.0010068991660156937,-0.04959331414436571,-0.048797396266251424,-0.010743890567130746,-0.17159207698584658,-0.21517757816775818
-0.30117789505557846,0.061628462157201754,0.23556647318412066,0.2668813072804783,-0.2589762097656124,0.1754842866753117,0.004820579925766564,-0.05934776853979574,-0.048943143077663925,0.003176197135676983,-0.15053643956087673,-0.27680930198634396
-0.42547456036837844,0.15060322559440362,0.3648582311014707,0.32960776442036793,-0.3876793479184542,0.29594470309665033,0.020537742038099365,-0.062118875609948845,-0.03971164415825073,0.004682006071951866,-0.1310311644884559,-0.37675029664067783
-0.4890199852460905,0.16261192512241665,0.4140584341220545,0.379704177380497,-0.44769503362325647,0.33557730665078994,0.02273255198252778,-0.05284792815742703,-0.026512020330648107,0.002597369800785317,-0.1041675966459336,-0.3692636874231035
-0.49205999721043003,0.09296260873203481,0.38096565370702007,0.439214053711603,-0.4282978032653531,0.28870563930127446,0.026982046591572585,-0.037270639298558825,-0.016498102822091326,0.002549813389284206,-0.0848572009531312,-0.3116544217775879
-0.450161402459388,-0.0393755497322801,0.2857225912119456,0.506334527157096,-0.3489433963115048,0.17531704710057883,0.0415155344018009,-0.022379885301557163,-0.012444560592192415,0.004443784245234826,-0.0776675426210157,-0.2613434078066264
-0.3938346556744468,-0.19296057786556123,0.1699600869180471,0.5582021530297714,-0.25748367809798695,0.03982249804143111,0.06772343890455325,-0.016362676182254076,-0.013106797043568734,0.003144226581288592,-0.07770003428646785,-0.2759516119924818
-0.38361942904401247,-0.3186657878401412,0.09957375440039659,0.6008191710093089,-0.22524758341901083,-0.05641339363283038,0.06858837165466275,-0.01783954344973614,-0.005468892910823965,0.001247341054800877,-0.057485056288882556,-0.28248025855232056
-0.4083044671930127,-0.3917820647233639,0.07942499111442186,0.7088029173352188,-0.22113109201428516,-0.0866073744970988,0.07534920715673067,-0.012151874190179476,0.014202636411386398,0.005015673352964312,-0.03359952556032084,-0.2642306637457716
-0.4298563474380123,-0.43233071908606,0.0735882248688235,0.8005496077743254,-0.2193465765304697,-0.09563617484142023,0.09851574132071526,-0.005862419327169054,0.0323586656376381,0.003976483489118497,-0.012335685667660287,-0.2228428743216877
-0.427030691103452,-0.4364931628750234,0.06956892200335714,0.8032598990874746,-0.21447432687501275,-0.10020896703296946,0.13136841609732747,-0.005293442057621264,0.037987957125675625,-0.0005244681495884584,-0.0004912233015929065,-0.16067747028716106
-0.3938626169074537,-0.3796254154242312,0.07575719106683103,0.6535823305745518,-0.21920397166471473,-0.09184405414863671,0.15157723269291706,-0.016447040377996373,0.02243695100004258,0.003367752528959785,-0.0053172046741481755,-0.08186381383574484
-0.38682758072666784,-0.22159184406198357,0.15075117573408933,0.5143317413124777,-0.2645629124281849,0.01423826697421979,0.13232630548979807,-0.02640540139874253,-0.0010017647212923282,0.024143228728199784,-0.03031517281207339,-0.06576285464050328
-0.3987523747237336,-0.10811993785534449,0.2161231297918506,0.4518708452508006,-0.30657219805907787,0.1022769731583689,0.09001006955378064,-0.03262110369131271,-0.013297190874069446,0.009173614588756245,-0.03783439303391069,-0.11986239228613728
-0.39419272234046393,-0.02065400780027253,0.257177489989446,0.38249362513142054,-0.3293487655936034,0.16249197062637397,0.043977245838974846,-0.04199132433378367,-0.01512654622829258,-0.025311309045869763,-0.04556432076735095,-0.2343773451833995
-0.3592773124647811,0.053971629542335864,0.27114311094569693,0.27990147134045307,-0.3256961347464781,0.19706341372907477,0.010836300602213855,-0.056509968373545334,-0.015614349915431567,-0.05881679623096146,-0.07520343627726876,-0.3854291945477874
-0.2994394953163312,0.12329959302699368,0.2655157552462859,0.1690460366078232,-0.2961212886064712,0.21817483030418514,0.004701670478165599,-0.07375457431408597,-0.031392346797263125,-0.06711705351224649,-0.1513131041535882,-0.5346012952122401
-0.24134894625771663,0.059527711947472486,0.19389039916283837,0.15985293083403856,-0.22708844771354023,0.14531216266320016,0.007221736052174901,-0.08428927865587202,-0.05959093246709017,-0.08043646162247672,-0.20969026493577358,-0.5564661915254694
-0.1996608311193405,-0.029776990428233473,0.1205119935324733,0.1828813068069257,-0.16676332806307734,0.06358310911030822,0.0018513411692011872,-0.08355172133449952,-0.05360099809350577,-0.0874617752728112,-0.20521212443842585,-0.5011521108941135
-0.20297384135842428,-0.10803607416551773,0.08325863148124012,0.2475966106300484,-0.14431071370181006,0.00927841149802017,0.004722750209934955,-0.06600556024817397,-0.027641181007630057,-0.07432177572083357,-0.16808677270051856,-0.4312342818169094
-0.24750723259139135,-0.16057464643895986,0.08697107794775973,0.3475828190615246,-0.15827186764423604,-0.008268223190601057,0.021177190940379082,-0.0349568706899211,-0.0005333231989179846,-0.04514493504705936,-0.12035117333693408,-0.37685958686049004
-0.2997543391040559,-0.1910445086950752,0.10705959309541167,0.4602098508882182,-0.17967576587237044,-0.0032766114494033162,0.04672475987803048,-0.001985831497428822,0.004736089593732489,-0.02020551735522409,-0.07739257527400879,-0.3397360757728483
-0.27332596354398936,-0.12329983134839481,0.1233134786386554,0.42031441114090984,-0.17553461241254825,0.04657403954435562,0.04886988346584509,0.0016269776858376557,0.003940905114620503,-0.018956739720935294,-0.0300442956780913,-0.2663819558669027
-0.25407603616810487,-0.04749961860278838,0.14850670935358373,0.33517437048867765,-0.1915081097070345,0.09750761607911196,0.046453101659045704,-0.005805132781700035,0.004784726135151142,-0.020350645831586595,-0.005395326336741481,-0.1912138127659802
-0.24874710906690395,-0.008354949710602359,0.16464795936158325,0.27927809364934686,-0.20901156055257394,0.12452666781440543,0.04570178223634468,-0.01378606250998491,0.005176188920093015,-0.02068107377137963,-0.0015915531362924178,-0.15631004945083865
-0.2530698478108997,-0.006160945797842239,0.16868996381756782,0.2682386470987709,-0.21859396391080524,0.12784675835671727,0.04720857348884877,-0.01734923850743512,0.004772638536809988,-0.019716036302575728,-0.007770500013176753,-0.170243105284996
-0.25339743542928195,-0.0022392021312338576,0.17089190575697197,0.2661837433323279,-0.21905280149583714,0.12988411555498536,0.04670848676385008,-0.01625478190329578,0.004733527274899418,-0.02022371135547916,-0.005228667633649519,-0.2116435209432158
-0.28208577873758506,0.006365833528889013,0.19471088525923363,0.2551730959215853,-0.24630365077151528,0.13478427441641666,0.04729504261794975,-0.007657855756580337,0.0037283397752167413,-0.020681551858139306,-0.01976810314042375,-0.24613674421676107
-0.30380710889623525,-0.02004039210798156,0.19612775687420214,0.3048820295048961,-0.2512560244070938,0.1239870765321991,0.04505370975997964,-0.0018649781874932752,0.006164682319057428,-0.019853704293051864,-0.06103989878072627,-0.29499481163102426
-0.3413951191780172,-0.050664094269838346,0.20618709873658966,0.41448530651394694,-0.26299889411257965,0.13036785830424877,0.047617330658379836,-0.0007228391137652852,0.004978980935929026,-0.020070204631476053,-0.09795068895635445,-0.3279751941965153
-0.4138655534289848,-0.0678672204063073,0.24670107205498423,0.551615385249043,-0.30911206170641903,0.1649607716462811,0.06088875958300145,0.0005579895118169795,0.0016075294824586077,-0.02103744609967482,-0.108199965222033,-0.3384703133584794
-0.5358339573344962,-0.06583568527342848,0.3305263797631394,0.6555493983310766,-0.4148533755195547,0.21898430689534198,0.08891187560849596,0.012602195417535607,0.00521644256030873,-0.020077715110462975,-0.07757165076046112,-0.34070063527807737
-0.6295159304460464,-0.09784241341388612,0.377967739802559,0.7080082662487965,-0.49645766910262407,0.22469081636905064,0.10522960054410604,0.03941261765538811,0.04716264050314746,-0.007545712366622218,-0.049008976042019724,-0.3575210992705039
-0.6795967677669634,-0.1547522057874503,0.383239699822214,0.7818430749773241,-0.5252992928595268,0.2037884299402804,0.10859665131494506,0.05860743000358427,0.08238876374023997,0.009055035123460837,-0.04513531182915347,-0.2902276841293405
-0.6779082550385614,-0.22589620217825437,0.34618244093985495,0.8275005293710239,-0.5033736386567039,0.15111278255748287,0.10964505731926068,0.06761636742160747,0.09342233458404507,0.02204065210873073,-0.0408392888581091,-0.19513454405719888
-0.6355428687880458,-0.27709803818734496,0.29157726056704797,0.8189347181008957,-0.45276166194756545,0.09350599298353462,0.11124884046221375,0.06594442642619498,0.08024114615084711,0.027837656046445076,-0.02629332614502727,-0.1286577971411274
-0.5815078969512228,-0.25342113020453827,0.2668461744126606,0.7515064090501983,-0.4140592610703175,0.08640016328509793,0.10946520250338422,0.054977653441996274,0.058377356753950616,0.02654441854513681,-0.005084748160634474,-0.1463274428669661
-0.5624215705454769,-0.12558661116632916,0.3184155488970687,0.6983201747823345,-0.4247593789712478,0.18251851353473375,0.08564092776201308,0.0293939488046453,0.04632133461233535,0.026633429369515873,-0.006353751744872077,-0.11892456367444197
-0.49003752803878087,-0.08394592205573938,0.2902954525620672,0.60966896539824,-0.37517742131416015,0.18335024381414874,0.06489088115140638,0.008214031511193107,0.03792443729467166,0.022802648764583655,0.0043676314773914435,-0.07214454203427723
-0.39073539778033883,-0.10355683383624988,0.21298399208727817,0.504164035516335,-0.29559105695493837,0.12454545170786858,0.06507702900326581,-0.0008195098665595175,0.02604331534372181,0.009102102159317345,0.020563528734891555,-0.07614810220290542
-0.29825284071058256,-0.13933484969780907,0.13214149498871947,0.40992063426691716,-0.21867400791777147,0.05607391310731108,0.08125991873294487,-0.00034834140113477547,0.008316574517238499,-0.00984650663005871,0.0256031085913121,-0.1384366397975724
-0.2526731967053983,-0.12896349940486634,0.10643425428786393,0.36333286578243273,-0.17908886945709657,0.04010621526489439,0.08826642130155604,-0.002150808710616763,-0.013217567002596001,-0.02004341076630248,-0.005655898568479788,-0.2113004591491609
-0.2182113340973496,-0.15791204197188924,0.06842716083946543,0.35203400123355766,-0.12623907107854934,-0.013106994748156041,0.04956263389080574,-0.012775982470563859,-0.016389766262881342,-0.005352818424330316,-0.05475104908479573,-0.21408854208605663
-0.2194012314974597,-0.20803599930036243,0.04393412428773731,0.3911914136680994,-0.11316026584647956,-0.046569374113299596,0.025581866854620158,-0.012469312093564007,-0.011155332739967412,0.0024189847167241096,-0.07219221375610599,-0.2132492530702678
-0.2372208588473363,-0.24533200593805746,0.037205493219057105,0.43418707451609284,-0.1251402668035829,-0.05640536258762491,0.02184509043958308,-0.006199284848589589,-0.012496212930799893,0.004381002645150024,-0.05213511072649117,-0.20822184540833466
-0.24414246041644097,-0.2582856636826389,0.035365756796722846,0.4377998908120726,-0.13421747603448983,-0.0600963151398292,0.0291637537989214,-0.0002516661488108859,-0.02229211509024156,0.0032423428346202085,-0.007592111666836403,-0.19067682162700503
-0.20598413834214174,-0.25409884111865394,0.011574842577737336,0.3626354993989146,-0.10176285515353994,-0.0924323643635883,0.025656785611230897,-0.002028154081992633,-0.030854711403033384,0.0031293503380415656,0.03133190935230381,-0.14612196392665355
-0.19367814477015421,-0.18858085400199115,0.03629194708427377,0.2948345032304496,-0.11114953236771313,-0.05490810180506689,0.023032965600125264,-0.0023652389665561563,-0.01055118248139378,0.0004419943329042209,0.030554423439834593,-0.10350064102441191
-0.2277472208018865,-0.0953467712415452,0.10648147606011946,0.2644915700243422,-0.16898924766201195,0.03063232405096628,0.027284281725814402,-0.00430788146090852,0.006304509673503053,0.010464686765025894,0.04052154134879002,-0.08015966662852166
-0.28062657687433223,-0.02550612772798395,0.17763243585019423,0.26588155750169845,-0.2348784653461761,0.10555602799036552,0.026784464585530143,-0.012550450210230966,0.00700392375357158,0.020259275635448513,0.057843138701149176,-0.07916362287067097
-0.3376447081362536,0.002293186122058696,0.2303720692973956,0.29830507022768377,-0.2905644786029989,0.14947851698347026,0.022441872000246315,-0.02437331241505824,-0.005187310630652238,0.02005188063713585,0.07223566955199975,-0.0882380166891348
-0.3946460223710323,-0.002640685785177313,0.26657770910162704,0.36480354358439826,-0.33622957233032075,0.17451144445688158,0.02589717993595902,-0.030569325110967743,-0.013040027560328002,0.003132341443921378,0.06751144733723627,-0.08180285551552882
-0.4512328379232656,-0.027024210539007148,0.292684465188415,0.470696455312842,-0.365262329987689,0.18529752599006435,0.04240039707183516,-0.02234006832678134,-0.0019671570181189354,0.0007547224536603108,0.04836808410819155,-0.06435100227619205
-0.5068185368517776,-0.11978492252503425,0.2835971743652849,0.6215523237954168,-0.37208693972101575,0.14406689496603176,0.03944498748369008,-0.013608014311766729,0.004498506411373709,0.0036362027861887728,0.02047954614099145,-0.13104652402938977
-0.5621132147094831,-0.2611310556580939,0.24978811906414145,0.788434302628324,-0.3750056309718502,0.07172717861260675,0.03258649343625599,-0.005096039957529419,0.005717954686524476,0.004228393335251462,0.0019841995681313266,-0.22748502646155808
-0.6083111044965561,-0.41032255229773223,0.20584353485127793,0.9403704218743543,-0.3783435232187405,-0.003889839281521877,0.03717181110725588,0.0002966435228593203,0.004114320950398044,0.002177777001442201,-0.003565577133730809,-0.29577222775100265
-0.6280487902517248,-0.507241749348028,0.17032132509811132,1.0432780622698443,-0.37429308314116433,-0.04843367840400844,0.06794740725783363,-0.0020810785632162172,0.004738553505321775,0.003158877888709594,-0.005415997072902449,-0.27575076273048954
-0.5794540493631716,-0.4893968744892232,0.1463395954043066,1.0173188124298838,-0.3275059868145644,-0.05502957084468281,0.08587154665714969,-0.006485356438821271,0.004280025448450709,0.002892022360398254,-0.03211860711357533,-0.2650589526844999
-0.5040919646088318,-0.38649871848075024,0.1471184347932113,0.8539284714285771,-0.28968180448540215,-0.029004476023651648,0.08662092534851196,0.007391317612476834,0.008097402376891973,0.007269777232295188,-0.030802955016603066,-0.28348998022816296
-0.4204021428899275,-0.2478221834975864,0.16030355767981994,0.6431769129171827,-0.26122424955524504,0.01913789920930825,0.08774158550393091,0.01941819103315872,0.018217655845498056,0.02065743906864632,-0.015875513647576445,-0.27665424874987105
-0.336482595676037,-0.12359557116825833,0.1660389129407542,0.45911047176003783,-0.23114196149870736,0.06768409686237045,0.09174952555706022,0.017744147845880735,0.03156137420726522,0.0387836304939936,-0.0022075924911290263,-0.22636533688956983
-0.2522207407277222,-0.06504525118541088,0.13839079443190977,0.3619905057747012,-0.1792863941670109,0.08523748751054995,0.08851822916029783,-0.002045846793549714,0.04059332113661237,0.04976026011818835,-0.005017577110191039,-0.14645236475401452
-0.1872664183224393,-0.03268317037725634,0.11063094570700412,0.2508981426494536,-0.14671195906257137,0.08159379165783325,0.07272130327084313,-0.0036875847125544064,0.040624406081912465,0.03741323023596157,-0.001072280466952491,-0.13195744173263146
-0.16619675632275563,0.008819454468624859,0.11727660055294427,0.1513432865937573,-0.1505461601091142,0.08959734726617266,0.07100086408477385,-0.0027676705230870596,0.0411518677314904,0.02133327570250396,-0.017314679567387893,-0.16566563734534362
-0.19392634008964768,-0.0012845821065823842,0.131001029882726,0.1649447886866641,-0.1707301716425944,0.08542791315470748,0.06573365344306516,-0.0008017067643591462,0.04011590047135983,0.0069038121849495475,-0.03141207822787241,-0.20034177202150658
-0.2616967560669263,-0.0772985282234384,0.13863868881558108,0.31602782082911507,-0.19537577010944954,0.06489089000072609,0.045442314653615104,0.0032423256286983966,0.03488931013040254,-0.00565496500421936,-0.02942357661369151,-0.22872927613346886
-0.34784444747363946,-0.1918926829099366,0.13927805417418118,0.5590534846039205,-0.21937971717296215,0.04111973717186885,0.00457692633748927,0.012197158116775512,0.022501647285529957,-0.02027429488134439,-0.005348817560798586,-0.2771280730179224
-0.41101440016660057,-0.2015829322709209,0.17727052226938553,0.6513092848639667,-0.2651514886186709,0.06887467223922927,-0.002679888597086838,0.004616396384809372,0.010252433520936986,-0.024349604317536834,-0.025790359374413548,-0.36796213030014246
-0.4354324542045421,-0.19989598483726453,0.19469855063379296,0.6229895928956682,-0.296535185272699,0.06972670655368186,0.012000369895883278,-0.002299774161145261,0.004761270517675597,-0.013263354605517242,-0.03453358432701252,-0.3867707850954589
-0.4060654811373291,-0.2346304708047485,0.15722963607698867,0.5773773892699753,-0.26949565730009056,0.021319472209595496,0.02261713881024884,-0.0030828027805667544,0.004670020662644228,-0.0018459287109960038,-0.018601670266082965,-0.3602695493511962
-0.33374731730009194,-0.29435885277809226,0.07798670113355685,0.5577517687981728,-0.18869982464640095,-0.05339750318327765,0.02346875938810162,0.002967440148585973,0.010235391145195618,0.003446053796707556,0.005076656208884402,-0.31441241175668455
-0.2529606190073392,-0.3174516808139902,0.011487148961496146,0.5569438510339983,-0.10186784895821097,-0.0924956116705033,0.02605060344021498,0.012561008461938902,0.022974049986338018,0.0033504974299075905,-0.00525023470391177,-0.27430154469392665
-0.2441031658441439,-0.2749714796775352,0.026916670566399934,0.4960335278590641,-0.11762070770967906,-0.06407197506253784,0.05191914422091949,0.031193754634724777,0.0448176736664498,0.0168109755825208,-0.01814092136966196,-0.16071995242610868
-0.26865194676874665,-0.2575201752305712,0.05239073881859703,0.47385259648000344,-0.15359791280311483,-0.044166736569972956,0.06801988719723177,0.038224194359357144,0.06269224510836523,0.03031146937863746,0.024149590671813888,-0.06400072579528403
-0.3287760338913094,-0.2524021769672189,0.09579015001979045,0.529476172411118,-0.20645033564966653,-0.011789388801290806,0.06998635682066125,0.03157321414251233,0.07355372012901941,0.046501013739097784,0.07746136004811899,-0.021621994740835693
-0.42106068791322365,-0.2524859329749516,0.15839652480734226,0.6449203795427768,-0.2785553515494406,0.035799143108716694,0.06455131644142642,0.01810286761517073,0.07729303388807703,0.06797148426870264,0.10304200708888969,-0.023079857879716986
-0.5354281662593892,-0.2550806035290031,0.2347267001920363,0.7523247992150797,-0.3754304098894676,0.08524425007128514,0.06792398693572521,0.012322702216673701,0.07631474604962166,0.09660711547600057,0.06727949669563829,-0.017242100721421065
-0.5806976874354225,-0.26748207051347767,0.25919868300135296,0.7664201894171215,-0.4125225454218278,0.08233307036605743,0.08250554627928304,0.01387009211482394,0.06747556745857611,0.09106056463466052,0.034217218808031066,-0.006151187471050983
-0.546140889563153,-0.21127610187556048,0.2641101474672269,0.7006932915411855,-0.3916076372074872,0.10077236540375213,0.08453941039662181,0.008400027898614533,0.05044160876807979,0.05490162203075115,0.04523093096582268,-0.04643325638293855
-0.43461245756244277,-0.11237810669490864,0.23831784574525883,0.525789040036111,-0.32090071880561466,0.11548782561153685,0.0734204517555703,0.001362709248179801,0.03031293895174411,0.01802324799030067,0.05675239387740024,-0.11808070185040467
-0.2730639014620287,-0.01995972351683963,0.17529804719157457,0.28205588918920954,-0.21603780467259684,0.10255979374968188,0.05623850213391116,-0.0031082499120798305,0.012919762558575144,-0.0017345697328207843,0.03548409081992355,-0.20152011406176978
-0.11161129733334257,-0.002448195419198971,0.07453303140330642,0.07185465314490104,-0.10113706913472857,0.040615000216129314,0.04687168566000386,-0.00202034966909325,0.004758101471183182,0.0031993020337777738,-0.04236536702528493,-0.2766074111508058
-0.06895386730911221,-0.010299734314008975,0.041611293315757844,0.0635604126239771,-0.06631125486821501,0.032005788855948694,0.05843987518905796,-0.0017702267111965298,0.00568624374351627,0.005720778950264611,-0.10265144598915554,-0.3255902259190796
-0.07410450939174495,-0.0028079843878353293,0.048889447014982074,0.07679754709801855,-0.06490628456033441,0.03686941866813282,0.0719044407424271,-0.0021545105849786143,0.0003619510865825901,0.0012534696451206762,-0.0935328903543893,-0.3258272359843347
-0.10538456277961492,-0.05120104663349457,0.0456971964817883,0.155838722207775,-0.06552291932479838,0.00999189961705829,0.08505085625686519,-0.0017732974117165012,-0.008057689512420977,0.0027746862482773225,-0.05905013768324214,-0.2904464524144177
-0.16104489079014062,-0.168876092134224,0.024084700337573643,0.31912688982476795,-0.06902777867033588,-0.046974334429733096,0.09740731889372471,0.0019548806186155533,-0.010861440128860617,0.01313646654418051,-0.025442762418051785,-0.2282146091354757
-0.2544420853446569,-0.3187465540749176,0.01183925532190274,0.5589116757763923,-0.10274582409985535,-0.09291066596412445,0.1099159047928833,0.012484566394860695,0.005134085499476111,0.026540617954680778,-0.004393655841459786,-0.14530530203856853
-0.34494174870058675,-0.3654778047045252,0.049687853978134744,0.6333277375778806,-0.1759496490828908,-0.09409214647009422,0.12154964283589968,0.0247513393572422,0.03110388715159865,0.026356055141529708,0.04069333621024274,-0.055995371533183604
-0.41229174762623155,-0.38513559818529886,0.0854867131916804,0.674582483872975,-0.2329918523881448,-0.08785539404178233,0.13641793993658938,0.01887682972038198,0.03488543430909217,0.030979343548671826,0.07304027171617493,-0.022170057068714912
-0.46916538834723176,-0.37953228731819877,0.12692447525113784,0.7266389643370682,-0.28220512471513226,-0.05783973870561066,0.14744439128192313,0.005857671349838346,0.028675299461562942,0.04401814949809987,0.09928178091195157,-0.01338971158881193
-0.5141745823385587,-0.35400806298912957,0.1703632875167299,0.794228650662229,-0.3205163517266166,-0.00783314871777197,0.152110411830038,-0.001168388369593427,0.025878278584844844,0.06156057568848769,0.12203926433561818,-0.013521413245109453
-0.5340531324177811,-0.31820911694073634,0.20192816589861715,0.8490047050571192,-0.335135712122375,0.04035576524365391,0.15180518808440793,0.012502162955915731,0.04066539255320978,0.07314559719736734,0.13969441462039042,-0.018594339911264753
-0.48668303535024593,-0.3288729372329395,0.16438763045212998,0.8306221090039562,-0.28771171308723953,0.015232826071246276,0.1542566608477912,0.025643245709672465,0.0453897876142505,0.06272431178502394,0.08223972326820705,-0.09637876629557243
-0.4076074007307708,-0.2713166407974342,0.13975849239401836,0.6437648356682589,-0.25220494750134564,0.004680278018282087,0.14225889298899394,0.01899331725200881,0.0338091411741171,0.03818333778766234,0.004942238932374399,-0.15630209261217573
-0.32830794231740007,-0.17963100365692436,0.13220471209264856,0.4535074080199968,-0.22228413126914337,0.02323254823957492,0.1193035068778856,0.0049558412024577805,0.026205420809374595,0.013261784416728907,-0.05895682204008603,-0.20730394232301194
-0.2716205141928851,-0.12199536319369984,0.12281416779558849,0.3712016260368806,-0.18869107748056574,0.04160977282986963,0.0915161313419562,-0.005364638596863354,0.029742657762699635,-0.0011524806705644891,-0.09708579424531184,-0.27696409211284895
-0.2534723543630677,-0.1937997794095242,0.07424968985719674,0.46152431902468105,-0.14058900631490695,-0.0053087929623258845,0.0674465036570336,-0.0018698182588982601,0.04029908814081771,0.0032099066937799317,-0.11404053462169592,-0.40618961422347194
-0.27820635911653385,-0.32382421436009773,0.025408918280991247,0.5184498932002533,-0.13455859349437901,-0.10128744940996447,0.050315352266347625,0.007962005943084225,0.021564891101720773,0.006243101806722804,-0.09720963073333776,-0.4735311517558753
-0.3123527363849895,-0.37037424044925515,0.025092819686642013,0.5951849453461575,-0.1478969581005314,-0.11612451881505308,0.056216350839980916,0.011666919298093076,0.0011433866690523525,-5.770764116644498e-05,-0.06263317232040345,-0.4225498765161783
-0.3371582453446161,-0.3363152304514816,0.0591241562977399,0.6257256514544912,-0.17263728457685454,-0.07339913662077478,0.07774568970569114,0.012967193049073074,0.002672721673717324,0.0030330801128464007,-0.01947772708452517,-0.31958890447462385
-0.3369663997318246,-0.2425714818284517,0.10631246972388171,0.5592347633146273,-0.1997173057373523,-0.006665465983514735,0.10164983561011383,0.016336778938029855,0.027623381649171774,0.02143812052587953,0.025729533577068333,-0.21473107799019162
-0.2986853804048616,-0.12682420834971012,0.13875008065679442,0.3615012687702684,-0.21804773786774143,0.04157681165766187,0.10971224816918733,0.026896908731872355,0.05866909290291666,0.05013072342920555,0.06839630415587594,-0.145462961130834
-0.21454632706239002,-0.014880768457777421,0.13813630187625223,0.2387877731131504,-0.17388126032773604,0.09372142590286203,0.10789436724562537,0.04385865325054741,0.06815329230932934,0.06300380270166671,0.108544827764252,-0.07169226273466701
-0.14478391697474205,0.09501580959624807,0.14624911345691957,0.11968614819917311,-0.13771352556327465,0.14156510707562053,0.11408314383791358,0.06111473807584101,0.08829080293787045,0.08747224259432448,0.16488587615196845,0.00290294235164285
-0.11792692842257403,0.1622499649659762,0.1619543454775611,0.023711249539923488,-0.13576128162529494,0.1682504452752482,0.1265026700042154,0.0783577330122098,0.11737071436944688,0.12731480691432825,0.2268805747595583,0.03823683784318415
-0.13205339339848832,0.17016282459197477,0.17553841968430436,-0.00950428659239247,-0.161193970035713,0.17422381726827219,0.14558191097465642,0.09554734283370193,0.147614217869781,0.17510496039003753,0.2834602360797796,0.03916937401201154
-0.15915451324740862,0.12380714458891469,0.17053764716094694,0.07226521795355702,-0.1796716236071656,0.17438088367542975,0.17341496606212065,0.11296125105954163,0.1666671773119233,0.21405703610024046,0.32300845222578284,0.049090077975631384
-0.15723475138654341,0.11496323414575513,0.16477029053453215,0.08992218131577895,-0.1767440190009118,0.1747173471072972,0.21217331047361418,0.13671753199498582,0.20362462968589276,0.24248541791323627,0.3459280863597333,0.16328808736121
-0.17142226619273754,0.1373500565300871,0.18570175021303098,0.06530939266988516,-0.18968164708350474,0.18052921149089932,0.24173463739409073,0.1668652272982207,0.25808701212522267,0.2661396110223491,0.37034957538017627,0.2582562869284145
-0.19247199457460187,0.1765629591617201,0.2197849396785962,0.06188538394735462,-0.20910809634260955,0.20881902470595104,0.25316380622256696,0.18908297066970295,0.29515795443832366,0.28050722433758846,0.41644270531336974,0.30062317437170044
-0.1985713436684357,0.23231817636229773,0.25206885171265464,0.059733584952786384,-0.2232673045953596,0.2575362097874587,0.2432977317702895,0.19246922309182585,0.2996769735445514,0.29024325250200833,0.4810826242749674,0.30091076715803605
-0.15779330214015042,0.31521192155609684,0.2662279920261625,-0.02913441762020973,-0.21838580762217238,0.3083923958654587,0.21447672334894594,0.1694968212199787,0.27352790349125194,0.30764042320367624,0.540831002307877,0.30637231730988085
-0.07443451138699513,0.4249053875573455,0.2650081918807304,-0.2653819353526862,-0.19625793303779246,0.3313084834120767,0.19471546948019647,0.14711723780422434,0.26875741950454257,0.33903159413997774,0.5245906272254444,0.3460441184510314
0.010682916156191548,0.5568815332049551,0.27384205439680687,-0.4708902328965288,-0.17156970861132048,0.38278350881956746,0.20575747647294954,0.14625918137813165,0.2787325089000333,0.3523511808676803,0.5018191030511967,0.3716622863774204
0.09731561122499612,0.7020249678051761,0.2882936420358397,-0.6554843063293329,-0.14580858289455445,0.45334904921375263,0.2248548149427711,0.1517127862849038,0.2888603704945318,0.3561907864584463,0.5010653540375986,0.3759874839376898
0.19327676618610914,0.8275070367773111,0.28648810536069375,-0.8285711548099606,-0.10469246236456137,0.5066484650473859,0.23301032812812406,0.1555494118755312,0.2967635771256954,0.3607575207188736,0.5221161738805274,0.3819049384474538
0.3124149713569624,0.8809644654605547,0.2325929978431595,-0.9979693448998059,-0.02140615775775879,0.4846969063713968,0.21468348436530768,0.15593663257341317,0.30999595174693756,0.37751735380766266,0.5414085137457065,0.4366057857408098
0.43609448904227144,0.8400641829925016,0.1279864836180595,-1.0650539545597475,0.1058620383784459,0.39720519184500924,0.2074460567936976,0.17884245641407995,0.3416692477000793,0.39266310350909206,0.5593697671079563,0.5335149254742846
0.504806901548575,0.8246797412314972,0.07357466593018028,-1.1153904678488888,0.17566037073936902,0.34882027625077633,0.23017805523553203,0.20920991649988208,0.369692377524761,0.4020461730486654,0.5897886901521132,0.5299399080433111
0.5422886088411699,0.8107910484945442,0.04111919595242539,-1.1668251565092398,0.21135617950475527,0.31027094218325074,0.263834756491779,0.2333869544359584,0.3781739647003451,0.40094497858748723,0.6055509092865249,0.4720545750415646
0.576729979675659,0.7605732258288532,-0.007609996849547111,-1.2049783780680723,0.24785244907494164,0.24838352327543364,0.29169387038502675,0.24450057089568322,0.36228592508142893,0.39054890670069126,0.5909337922534303,0.41797771344221174
0.6392903957369609,0.6263191015353867,-0.11784672462222456,-1.189453854966975,0.32881061679296925,0.12776263399055018,0.2984675408848183,0.24133645012113453,0.3269611046595918,0.3771044485836401,0.540286836925919,0.4346264892347712
0.6587912755747881,0.4668644276401343,-0.2115722968662552,-1.0917190396504084,0.3899352748513907,0.008831254678548244,0.275939976296209,0.23230404842304064,0.3028586493658195,0.3682071243290378,0.49338849488045333,0.41580649579303086
0.5951042331494788,0.3396824332451223,-0.2325345224955203,-0.9098338374863296,0.38811700916572445,-0.05585619420205319,0.24654744725280567,0.22112692929732164,0.28321297368081766,0.33209039825158726,0.45486438157875936,0.3225151673152905
0.49202703259324065,0.22221185776151806,-0.22185424342136978,-0.6894837928146038,0.3464699442281723,-0.08798171811878527,0.22174126062408162,0.19294118567119783,0.24851169210921373,0.28123002791290236,0.4095380385724189,0.21462754754621918
0.386179873243271,0.10648581304702591,-0.20841297019490557,-0.4758778131393273,0.29063736808593954,-0.10840907445578497,0.20055681788964602,0.14766633382331804,0.19440723006646665,0.22898263470316732,0.3520349342312362,0.12096161690438076
0.309662025080478,-0.0031683086363268184,-0.21181738372438486,-0.3153302195591075,0.24962260964735114,-0.13795925443522838,0.1718696106655166,0.09806318287607498,0.129397933093402,0.1890446317800038,0.2847259172354779,0.046319344376628914
0.27330787999105166,-0.05027808244995728,-0.2109172513186913,-0.23925400866815374,0.24661742516206775,-0.16737933704100846,0.12048255592549881,0.08764379023340152,0.08337161466939323,0.123271260924737,0.20034777557162148,-0.004547140149438071
0.27409776772342365,-0.07247754377186494,-0.2226589969748786,-0.2292297130663193,0.2555728579978215,-0.18791441200554118,0.07641103717038296,0.07348780761708615,0.04976670380397866,0.0492707235562131,0.11223957169161086,-0.007697064820862652
0.3002345285996139,-0.11506647924420084,-0.26189968645227435,-0.22030613133862995,0.28257289941078445,-0.21988048897274012,0.036388941926213135,0.04038903201869223,0.028846005132669116,-0.003413891802363371,0.05029980144390298,-0.022750753206029577
0.34511231273141574,-0.18448668112875966,-0.3274064379522265,-0.2049016930539068,0.33224764369966875,-0.2758972698513009,-0.0014529151673008665,-0.006487727760184096,0.016427050944111704,-0.02457158811122733,0.01742096255067413,-0.08592268322115695
0.405006726437935,-0.2549391550460277,-0.40362847898293647,-0.2211089947249623,0.4064865798359385,-0.360917828448273,-0.03758737224553188,-0.04518328185971509,0.004132795957362993,-0.0201901758787801,-0.005971472117462419,-0.21177680670716015
0.44937244953385524,-0.25693902698530935,-0.43475620776908824,-0.3093094845743162,0.44339359996634153,-0.4027859983058039,-0.050706919331991236,-0.05545348100785224,-0.029718354124209118,-0.018610767254758413,-0.05585651904650374,-0.23997888765815326
0.41768728363263274,-0.26810118652916576,-0.41888060113731906,-0.24089702789965547,0.42604866857136553,-0.3895665795148175,-0.06776664274409672,-0.06388927767190819,-0.046537630292279704,-0.021282569144703237,-0.06847692181591905,-0.16158345788066464
0.3425149355940627,-0.299641104674594,-0.38376910564583144,-0.09896580397034661,0.38251812060936224,-0.36839727920024545,-0.09043717940328827,-0.08163500317552473,-0.038539779367487106,-0.02105858317491941,-0.05334999113577969,-0.05843483154555532
0.25120185275132706,-0.3311226758212178,-0.33767079325102445,0.033306614875234244,0.3237467035858897,-0.34953729391874283,-0.11247304248916862,-0.10768604364303754,-0.017989725454158067,-0.018517417701995217,-0.025479925481974773,0.01955285323222947
0.16776985741713693,-0.31773582868352074,-0.2742746762772282,0.07401196505837891,0.2481734876486587,-0.3143528381896512,-0.12141922682190526,-0.13082980058541138,-0.013621784804785021,-0.02028994561404274,-0.004231766046348888,0.04723524647750758
0.07603521862356678,-0.30091578154903936,-0.20350925596573688,0.1845812891290601,0.16657081328958384,-0.24571436601993324,-0.12231790319714404,-0.12456964190418994,-0.037632854951594,-0.024158759992777203,0.041298797274575805,0.04799975882040604
0.02293159246844562,-0.35377794130162143,-0.19414212823859361,0.28739004459914996,0.1381753681478647,-0.2538553221221007,-0.11750806461392686,-0.11532568853370853,-0.044771413541322976,-0.012421613906896408,0.06172826615886791,0.04762232868618352
-0.014479544690999543,-0.41546202741866095,-0.19988104666857487,0.3547839051395998,0.12700657524531417,-0.28922466615200143,-0.10504843281880115,-0.11496223511595924,-0.03752047774267245,-0.0026404075547712515,0.0443296458711067,0.04529503840145964
-0.054809901085777726,-0.4505960908561935,-0.1902366918453575,0.3985990355386031,0.10564693118006091,-0.3078143228182021,-0.08469935666810252,-0.12032229811284069,-0.02701781864984652,-0.0043512809952651966,0.007590344374064646,0.029626572556495277
-0.11229482359085269,-0.44502719589514705,-0.14840131902416623,0.46073198969906587,0.05440066620787017,-0.27146346457385007,-0.05765817925653284,-0.11612063272354263,-0.031194024347533517,-0.02045402629402901,-0.004924179423896716,-0.018981009759432864
-0.11539506035870392,-0.4821809852189334,-0.16505061890208955,0.4660897078817644,0.049309052075406194,-0.2923491960459624,-0.020051027617257182,-0.08946401767151817,-0.03599907571186027,-0.03300247376405144,0.002854038448599685,-0.10324286161339911
-0.12750767716176153,-0.49793613345457965,-0.16478045801134208,0.47556616153227305,0.044109116179696116,-0.30467790047326465,0.014390863110325211,-0.07076935999679654,-0.021172628376800656,-0.05178422191396629,-0.02481596986648302,-0.14511082493597
-0.18234903071924213,-0.46237317175500503,-0.10959974754197607,0.5304261240504848,-0.004077749820924221,-0.25148460511352094,0.03955020286196832,-0.06094813835397791,-0.0034542313018288305,-0.06161437096465127,-0.06073653807572895,-0.15379991085296962
-0.27052569252904984,-0.3870387359142301,-0.011713684295081211,0.6121773078679597,-0.09236717209583105,-0.14377189920124203,0.05561438434940166,-0.05841011869047824,0.006873667050066871,-0.05761903998675207,-0.08375505616804695,-0.1602861041330973
-0.34754729250200184,-0.3178712776396964,0.07548675072591456,0.6547590257268854,-0.1802440618149118,-0.04825396602826146,0.06777973504341614,-0.05950022899016524,0.0049289436653811875,-0.0440983495659987,-0.07786700186883715,-0.21289397830475126
-0.3771051956432309,-0.3087460855539686,0.10015860850168294,0.644276522033918,-0.20771613756883694,-0.04331731450468596,0.07116071169141568,-0.06882141455852625,0.014589484259905472,-0.07021157992927103,-0.07650443999663989,-0.2980970959143938
-0.40434937979889557,-0.3324845089874685,0.10667135828465718,0.6812061933400915,-0.22687974297492888,-0.047114386671508864,0.061364282731681555,-0.07276615789789972,0.02110781391411286,-0.09156782922295638,-0.07712399734803789,-0.34043514557009064
-0.4317678179861244,-0.3698752422353042,0.10641119014410731,0.7313036080164612,-0.24817156228264012,-0.05224269132640842,0.05125981757737074,-0.07466925213684177,0.010320787633798569,-0.0940967619391969,-0.07954377128124478,-0.34517353089027963
-0.46002620241042913,-0.42297048025630135,0.09879414427430723,0.7848815230544695,-0.2649015558451859,-0.0728568334044227,0.04642078709703409,-0.07839937648700397,-0.01347217241439419,-0.08550792395052867,-0.08906118067320143,-0.3337580401079783
-0.4879979953889669,-0.5098979692539722,0.07390520688477352,0.8517753487532543,-0.25690333247297703,-0.13917968359444446,0.04646725408274777,-0.08799358833604062,-0.031035910602317154,-0.09070056158485092,-0.11477967926166735,-0.3413048149869297
-0.4966073608764862,-0.6346802102976626,0.016764083189685343,0.9798294038122392,-0.21120571196136845,-0.2288176313045805,0.03438364590132674,-0.08913648617571636,-0.027536440607911376,-0.10812829872945343,-0.13923037487867568,-0.38213173424678654
-0.4720268127376179,-0.6946705631703999,-0.03020376310120657,1.0383734783905403,-0.16880420071684643,-0.26936271606856693,0.021746307354999772,-0.08769871176315412,-0.04439741473806193,-0.10795882037437668,-0.15164306642398423,-0.4062310075099908
-0.4517174464173782,-0.7044358571168885,-0.04892021876304421,1.0512009286699868,-0.14716428290089156,-0.2757955627910933,0.008825278630300842,-0.08729605537889289,-0.07126417162569817,-0.09690006683923719,-0.15073911445721577,-0.40620115677625335
-0.45540307890186327,-0.6920836886832965,-0.04018324585006355,1.0437271015301683,-0.1522655413956166,-0.2681836422809669,0.0004672723184186264,-0.08816854944379347,-0.09165788501236695,-0.08618043867516631,-0.1372178375530394,-0.3818866065876021
-0.4887529322465056,-0.6963165173701937,-0.019679850933930522,1.0432488301408436,-0.18096397157620198,-0.27028246902930364,0.005446189172543243,-0.08811750318181086,-0.08443737041297675,-0.09047585860376163,-0.11420712648061002,-0.3402808658243656
-0.5353902363146147,-0.6667906786806407,0.02688409484563448,1.0247628072394899,-0.24389382626729364,-0.23036618107779602,0.04439921154892102,-0.09550694144915088,-0.06222894281338437,-0.09624012021942965,-0.10928285653802508,-0.32862382279012753
-0.6214012773636352,-0.6135248062671834,0.11216059698959875,1.0976747516289938,-0.329444042187011,-0.14334544529859905,0.06785037035656807,-0.10399137316300529,-0.04183811645237148,-0.07699587214068478,-0.12346202919787924,-0.35246051151535507
-0.6895722822435,-0.5819170344606108,0.17439387747510093,1.1864936609418226,-0.38910271185514334,-0.07693017683944327,0.07177765399106,-0.10271372830843478,-0.020753968965419207,-0.05496953891060821,-0.14252334916803983,-0.33884645002326613
-0.699783876871598,-0.5902215996535999,0.17713429002609474,1.2214140736866883,-0.39448868314042357,-0.07032204461487963,0.06981990766541754,-0.09037211720563842,-0.002526123065418821,-0.04743956925064864,-0.1547636617953901,-0.2641388371919945
-0.6279250888377103,-0.6345863245232043,0.105958267787156,1.1404671598565193,-0.33480127822174444,-0.13866185371556347,0.08935884205591392,-0.07375696531375381,0.0045245023692454586,-0.06733119801317342,-0.15028804752701744,-0.14640608681046616
-0.5904773532264157,-0.6757675901253553,0.05974951054531652,1.125005883283954,-0.2820050987789262,-0.1995189382023515,0.12070524058387502,-0.07923245569136356,-0.006411701838752861,-0.0847493008017172,-0.12901387359034303,-0.1345241341619812
-0.5680256599292621,-0.6987427073444477,0.03291083885439023,1.1313063892990856,-0.24407088187635598,-0.2348242573928865,0.1200702098641477,-0.09311227367366123,-0.013998171468158073,-0.08948315762044799,-0.10624862078577446,-0.14898995249906613
-0.510087161675954,-0.6978351243890498,-0.005963358427940807,1.0709261188368335,-0.19609901832880888,-0.26163582804688046,0.10022726027342624,-0.10010658143539104,-0.013972021631116877,-0.0913460344148082,-0.08552937737882091,-0.15118130241179395
-0.420608556663658,-0.6737280983905904,-0.0545386984490188,0.9498793928163228,-0.14060794866567058,-0.27854911650528424,0.08129772086380811,-0.09652882692113861,-0.0064219170897818175,-0.09773756331166696,-0.07334348246421571,-0.14083735090524496
-0.34697253139433604,-0.6324272736899728,-0.08368027653270696,0.84845352549822,-0.10204956676961895,-0.2700465535649359,0.08910662384890389,-0.08812553969873696,0.004617784043040474,-0.11388948758141713,-0.07839006725250751,-0.14736080186480183
-0.34646366884641,-0.5673805833010441,-0.051192443365396134,0.807723084354169,-0.1216969925974558,-0.21992847426198983,0.10760131571543492,-0.09566151509289984,-0.001576230940826546,-0.12105399695074964,-0.10268752234353389,-0.1823465359998669
-0.3341308104040293,-0.4515717579851128,-0.0011085187032845,0.6778061894567217,-0.14765485954214128,-0.1564676780166908,0.09714688012753407,-0.10430146612637034,-0.025348808882449562,-0.10051750336715497,-0.11383715780870997,-0.2291217263485685
-0.31354155247933846,-0.30949754493199577,0.056628286456832475,0.5278132011826627,-0.17415012274014655,-0.07523469230705798,0.07833331720225549,-0.10326957840949898,-0.041678392534143904,-0.07882640754920625,-0.11630982283129693,-0.26326472944007295
-0.3065299967796154,-0.18328475060726884,0.11557619486624733,0.4309766623151229,-0.20669736913343512,0.01320194941006974,0.06997346386619833,-0.09100325454178615,-0.038166429281342756,-0.07266403707844322,-0.1147832644182181,-0.2770139147026314
-0.3487379443022765,-0.12993328321198797,0.17115955671525593,0.462887987120157,-0.25886973868412116,0.084957935612778,0.08905899249059718,-0.07361269569942708,-0.012955958467927811,-0.09021074000032299,-0.11389748128880012,-0.2760278653367024
-0.43312194932036774,-0.19317221593539727,0.19652394367783052,0.5713833139414064,-0.31071736242370285,0.06918695439278903,0.10496028327874243,-0.07197189493646602,-0.0021974198110372915,-0.08294408934170164,-0.0943270385962422,-0.28269103193135264
-0.5100316514279526,-0.31062464559197606,0.189449246376743,0.7208381144736463,-0.3357510464513243,0.010441764123528537,0.11082220005930014,-0.07367737851184543,0.014165378859645665,-0.05978143146580081,-0.07689662600951883,-0.26650367757391696
-0.5652645633442495,-0.4549302652091291,0.15410441605442135,0.8863963016714282,-0.3379950274643024,-0.0653039527850152,0.12632953318796825,-0.06286281576228211,0.04509128480516966,-0.04840918044811225,-0.07891130445412063,-0.2827267024602147
-0.6003346831321411,-0.5817276887090284,0.11390932757978534,1.038135710623573,-0.33103439988716776,-0.1264069186636635,0.15644160834721546,-0.03640173574914746,0.08408848397358315,-0.05461345155259271,-0.10550597368673276,-0.3671380100546546
-0.6298740145514556,-0.6316617392680659,0.10875754917299466,1.1412991498400258,-0.33717005805576733,-0.13536328659720379,0.19449463193149344,-0.0013683683763162447,0.11297411225192151,-0.0663411875954986,-0.1510663057136452,-0.5366549139094099
-0.6864350261214903,-0.5324986121263655,0.19720876896957018,1.165944493450359,-0.3989871010566531,-0.03723216767110597,0.22765053476040606,0.0296480254769593,0.14534973334625445,-0.036082599038835955,-0.16763816053804317,-0.6443841159770091
-0.742618477515541,-0.38219586094055785,0.3112172205071998,1.0929553664910914,-0.496287416488898,0.09306448635190127,0.292316484346967,0.08263655769638847,0.23200449674716173,0.044510071953852086,-0.12060485437825498,-0.6285109588735357
-0.8008759079905552,-0.18747914892967385,0.4490522371453598,0.9888578395912616,-0.6112528826734325,0.25862223074174934,0.39098708469264193,0.1586929072521757,0.36938183690372484,0.17023868540347875,-0.036457415647536615,-0.5146588019961955
-0.859026414254198,0.047656585585487445,0.6072167511402927,0.8769538846392644,-0.7309600803635415,0.4546276098333189,0.5131815499484109,0.25360499790791047,0.5423776406584112,0.32810921412497596,0.07534882058651632,-0.33769593703119194
-0.9109701711494613,0.3190426704339323,0.7794656287205021,0.7470048597590682,-0.8458440012898036,0.668318485784446,0.6377653388644952,0.35911011211775706,0.7256558474107121,0.4984087202821588,0.21763257644592698,-0.14464680091434606
-0.9387315901671915,0.5827024528580954,0.9313980555310278,0.5087290496644443,-0.9628552706572139,0.85226775162131,0.7633040835302027,0.4997139445589446,0.909227549059387,0.6960045850908009,0.41473397592383204,-0.0516147256830945
-0.9836070029615858,0.8585164042620602,1.1010835405434132,0.3275447116761347,-1.0869206979948598,1.0627770073888614,0.8988644736579925,0.6658232190704771,1.0909915464689082,0.9470726423057273,0.5983189581506015,-0.016849735175540784
-1.031738588258797,1.10760855636735,1.2594912724383025,0.20018284019520638,-1.1962577769233589,1.2592137149278138,1.032362260282064,0.8327593693059278,1.2617326589844549,1.203210185166987,0.7811621420421165,0.03672805816525154
-1.0624599287462588,1.2806993483981206,1.3677169985099542,0.1190172402188931,-1.2664085517625219,1.3950152125318294,1.1427906175141813,0.9826973803574116,1.4193098598823461,1.4384919479718288,0.9773728279881586,0.15863849336837518
-1.049770319384311,1.3246522173858728,1.3812883601195285,0.07058250724678997,-1.2717916777636127,1.4219999754085897,1.202118660704625,1.1030028400689025,1.5669916438360056,1.6457799345998363,1.2029461503449421,0.3781260690161387
-0.9832590517091354,1.3701668630430854,1.3591105503602754,0.006709753159982559,-1.2289714897265467,1.4390683244334772,1.1881985212769208,1.1962943343556012,1.697195731720202,1.918180819263516,1.4979457959689138,0.7353312593012616
-0.8279724487321891,1.5563857488593986,1.347688980339194,-0.32088759135643136,-1.1654668960396941,1.4951192445191848,1.1277843082613492,1.2600562057715143,1.7802843484502737,2.225093287454773,1.9685060497315412,1.2411973487571029
-0.5727411389805038,1.8045241631229667,1.299673433822444,-0.812237991029705,-1.037455770165209,1.5409958065933829,0.9907034943308126,1.2672671052649858,1.824019673594039,2.5484544471390023,2.5896194061607507,1.909127855785972
-0.21717517206870027,2.071681131697765,1.1931442876917728,-1.3884871498505296,-0.8238710775979994,1.5589136516308693,0.7566700194725173,1.1852888183025811,1.8298181790431418,2.879070879602574,3.3097585572755954,2.761677081311395
0.23048369305630423,2.3417799844880047,1.025581628298508,-1.989453536061517,-0.5219805359832237,1.5541840615238454,0.4157559542741861,0.9781088842679769,1.7941180010807902,3.2117468326274925,4.053368484914733,3.8237057565827626
0.8656198750977203,2.695599185286175,0.7730066294504907,-2.936570821651397,-0.11305294555812416,1.5055567061108543,0.0014413294644841726,0.6053139947002897,1.6566235696130993,3.45453363221159,4.809782689514577,5.105358564315531
1.6679250676616606,2.95034582342418,0.3569383930429791,-3.997308416662509,0.46508952663063685,1.30046074141717,-0.48188260011863804,0.14386694956169274,1.4143237829118156,3.5475331226942304,5.470971874935519,6.322898730838337
2.5564702005857294,3.0116347675860005,-0.21532561493807115,-4.968153569411156,1.18348874948626,0.9218720471258033,-1.0534478015974298,-0.391525835325346,1.0500046799498906,3.465761988812831,5.927868922102472,7.349022288933547
3.471728238097613,2.8271054223887613,-0.9298045154766391,-5.755533200673364,2.005779025678077,0.3607699284720815,-1.7100561442870237,-0.9889377476017728,0.5518560729696977,3.1877301205223345,6.104557221650176,8.09675400706839
4.366429996453456,2.3792917665827216,-1.7632252008384761,-6.346466831897976,2.885920402340005,-0.38152786297691704,-2.427886657679442,-1.6357175188080497,-0.08400747950497223,2.699082526450686,5.952849277947335,8.509598644230952
5.188038641523896,1.5887423485415963,-2.720026636074577,-6.596726850177942,3.811863547245177,-1.3310467156265393,-3.1414263167762777,-2.30311368898243,-0.8419278540229735,1.9755330587286035,5.350034487675127,8.371124173723453
5.818967178391721,0.6324978886683396,-3.631019308871339,-6.498669310321484,4.634569476719799,-2.300879319050007,-3.8133171781751236,-2.976597669647562,-1.6643603038844046,1.1048383310100758,4.428052707042764,7.834819364856081
6.2061495771034,-0.42300454959273237,-4.426643758184792,-6.092236759110823,5.282414792802989,-3.231085754789399,-4.443676783518965,-3.632978124827011,-2.51953255973085,0.10871113818914399,3.283191143858611,7.033875966569355
6.3434219374034315,-1.508677188109446,-5.067842497911493,-5.4268749196134785,5.729694641895492,-4.072111513870775,-5.026712454096346,-4.254306357266927,-3.377300483304045,-0.9825023392992964,2.006691536575162,6.049010949198601
6.265418141599677,-2.5467938343863414,-5.538893711102673,-4.568432064754298,5.98786458174207,-4.779523973542947,-5.551959852099159,-4.826846577003976,-4.206707650969024,-2.1266990077185723,0.6932898470095296,4.928064336518268
5.939593979125188,-3.3680947091193483,-5.732267768815234,-3.5416712458845168,5.983682792903622,-5.192568520440618,-5.9537616869882415,-5.34209998543601,-4.959127859857844,-3.245908758522397,-0.6142996504457778,3.5957015950296736
5.449983463121932,-4.098236097604007,-5.7684389534538365,-2.4333513204777137,5.80806646353547,-5.463683195304271,-6.245800472334457,-5.760395394883705,-5.600792280511686,-4.300775305795306,-1.9202709925480688,2.2016153833321033
4.90884861493851,-4.774278006833236,-5.742324657076333,-1.3499836552416247,5.56853082945281,-5.684017841731318,-6.4319637856173255,-6.046103579232487,-6.111749027384764,-5.238872745354694,-3.1436930966385432,0.9160998131595838
4.405315175962771,-5.384579132740109,-5.708553000619374,-0.3855087773874988,5.337964547472476,-5.887040610904778,-6.51189746384184,-6.185965600534368,-6.479442806075229,-6.0061421349330235,-4.208285774758002,-0.1501673506820088
4.013545064066238,-5.881635822992587,-5.693491521995652,0.374095953902575,5.165335133361465,-6.064169916077284,-6.4845074942416945,-6.186199618679074,-6.699238441824753,-6.5489462100718585,-5.0410509932992715,-0.9352036508410521
3.7654510877509506,-6.185808481666469,-5.67860537187528,0.8325176773895271,5.041538791590599,-6.162710864174481,-6.317866565913061,-6.012180690154874,-6.7134500020999495,-6.782465543567979,-5.52394208122312,-1.4999534069760363
3.6161741511658336,-6.300317497522132,-5.635066783097541,1.0688461034618477,4.944679619229177,-6.166251843776965,-6.053244944204203,-5.693950252541484,-6.565861247382453,-6.782205691929722,-5.6970858762788685,-1.9470189173703865
3.5210346449924037,-6.221627955391459,-5.530760362568676,1.1306779634340263,4.840341546075596,-6.053596776478349,-5.713225125854347,-5.270810267987253,-6.274615517344283,-6.571942932150253,-5.618603067193521,-2.195951890770963
3.4349796902171597,-5.960847403254621,-5.340708008539868,1.0476728444225711,4.6911784267234715,-5.819113509914102,-5.30711226339777,-4.782608389128354,-5.858291383113549,-6.183998336815278,-5.346196527518751,-2.2001826522894716
3.3116450696156092,-5.546493545635199,-5.047829219710098,0.8422782130775427,4.458838859319442,-5.472855825511176,-4.836827567902874,-4.273244269707491,-5.34114089715304,-5.664614763299494,-4.945704209989785,-1.9483724784100804
3.166553945921267,-5.020339974129629,-4.6837484672425385,0.5443649116503363,4.173222986448526,-5.049990486414897,-4.304561764978782,-3.770669005327505,-4.769318206838412,-5.0772334474842085,-4.464166405215123,-1.6214398738579179
3.0322535070134125,-4.494280323816501,-4.327040280329521,0.3017433024986109,3.906639418955266,-4.613322298888553,-3.7971144154044176,-3.291025098096192,-4.216750413759718,-4.496665287060284,-4.00341732606051,-1.3776287983111524
2.886910613651716,-4.007148126950025,-3.982485004209161,0.12269035789509798,3.6450234972707487,-4.191118675532431,-3.329309709062507,-2.846510459946634,-3.702796097757262,-3.955256080214178,-3.563503628103108,-1.1772245004082271
2.7263961707687576,-3.5790902407758525,-3.657449124540021,-0.008089138245425995,3.3853532757444356,-3.805073926230504,-2.902746444154323,-2.447242508324358,-3.23654626535647,-3.471217256087213,-3.14832110504691,-1.0033735911698947
2.559939542019423,-3.2146082786333205,-3.3604704264462004,-0.12498987484398959,3.1323461981390133,-3.4707581044271203,-2.5088178066355704,-2.10113494837322,-2.818595271614481,-3.051434696050726,-2.765821571328741,-0.8556390052759609
2.3952384228688604,-2.879769748534722,-3.0796459138826475,-0.23554295882504075,2.8813767658295015,-3.155104348215455,-2.1703524164347923,-1.824615877361662,-2.4547017594396916,-2.702802393383328,-2.4925676542288064,-0.778163388602339
2.20490948125041,-2.512620013158193,-2.765114293577298,-0.36477845174697693,2.598384952397258,-2.8129949414561204,-1.8723441914499002,-1.5852266850242533,-2.1285028677836126,-2.4044950896050343,-2.261938047478437,-0.7064877786673445
2.0141793803069845,-2.1448627724430613,-2.450003723144412,-0.4698961998620166,2.327632217056169,-2.473747029284609,-1.6084283201906489,-1.3688032113464021,-1.8386773331864148,-2.1323165893478784,-2.06852227255481,-0.6802811152837009
1.8346613276646173,-1.817320094313047,-2.162803475181479,-0.5232589190110208,2.089157464786929,-2.165337211704894,-1.3792437169131506,-1.1694137843163115,-1.5858943450549507,-1.869438564790524,-1.902425783917001,-0.7126523705668817
1.6653940444806192,-1.5763725673484448,-1.92627232310002,-0.5087709512128114,1.882063494488961,-1.9129945236933228,-1.1888292431129632,-0.9863648001164043,-1.3707223828876076,-1.6041865549638548,-1.747135641862625,-0.7915431423949086
1.3993321338892046,-1.3895478636759666,-1.6513501345299466,-0.41641477653017966,1.5878491612134782,-1.6555572967372478,-1.013618600447785,-0.8189007385427375,-1.1766874208610276,-1.3586576935612225,-1.5122537699395422,-0.736896393589471
1.0819237879510453,-1.1887387559097078,-1.334511846444724,-0.22089476152527693,1.2655685334431925,-1.3576488155144921,-0.8266669376872013,-0.6662254075473453,-0.9764322846642657,-1.139213584428474,-1.2693857865699842,-0.613325772497243
0.7798819036286566,-1.0068653606170315,-1.037663410639455,-0.009189933570898373,0.9641535878995421,-1.074909645244974,-0.6409402921513342,-0.5271596597810421,-0.7736933714966439,-0.941333131342296,-1.0498775995225733,-0.5015758469491163
0.5213267253755559,-0.8615049078409299,-0.7887669902560389,0.16404360793751152,0.702945792157047,-0.8401878678863112,-0.4702238921629465,-0.39449967930424057,-0.5781461942340103,-0.757414794487745,-0.8612690183475781,-0.4193226616567442
0.3059006829234612,-0.7571577169626904,-0.5898513670135352,0.2693026735197792,0.479664504876768,-0.6679208315144362,-0.3286540067398423,-0.2561348347717437,-0.4039334029522498,-0.5767209063985209,-0.6935877604729795,-0.3383079257561704
0.1264224594351942,-0.6396284228803648,-0.40868557620758644,0.39146213911187366,0.3074718438742011,-0.502797784986958,-0.2113485143343187,-0.1041376664466377,-0.2581449438916616,-0.3875823374904857,-0.5591360322265255,-0.24854762414522769
-0.01058064938385549,-0.551167831256025,-0.27102739995969327,0.475144788363009,0.16526911102283745,-0.36974373418750917,-0.10790859612757354,0.015292836380231534,-0.13617855456457956,-0.23279528346725686,-0.42770404627641967,-0.2140327850706009
-0.1270975775487065,-0.5097363413909248,-0.17101518714653402,0.5441514720788927,0.0496480116199824,-0.2874910635977482,-0.020009804262239254,0.09362620358552809,-0.039579828913013905,-0.11989448752573832,-0.30194441284958135,-0.20658024402049824
-0.2268735043836733,-0.49168254963244423,-0.09416806853267858,0.6057701300462224,-0.03987824015504924,-0.23901132001318337,0.052349435874380866,0.13850176238422932,0.03507234252180963,-0.045308413780228485,-0.20000296982582277,-0.2090260125735866
-0.2995504451564408,-0.44135537466945457,-0.019426965593339666,0.6522646851465409,-0.10245006606911863,-0.17974469615329125,0.1107937127387421,0.17076484034644487,0.09559265119985075,0.003928768823599432,-0.1506958076726176,-0.21230895422842977
-0.28013536857129123,-0.3218212206676052,0.02772949412122935,0.5440054915993278,-0.13468992901569884,-0.08983879366685782,0.15307446861672575,0.2066895048745097,0.14489603137219229,0.03472259898734302,-0.14988463294356927,-0.2541651045062834
-0.2421377667647319,-0.2395934242946884,0.04344003690565858,0.4368925801435423,-0.13161853044788685,-0.04838925727213741,0.1773633794787019,0.236787118402423,0.16608326164679418,0.05658660048205246,-0.1426118579390669,-0.26238651930160367
-0.21120351789730474,-0.1979916880590689,0.04343901981817404,0.37163330430387204,-0.11086051447538486,-0.04329630632517383,0.19254920623450722,0.2630000906414057,0.16987090251424375,0.07082090302959565,-0.12184909449589443,-0.2293976986094259
-0.1783016978795902,-0.18833731443048707,0.025976375943474992,0.3327874140105691,-0.07611112832284976,-0.06273088714003557,0.20867546725419997,0.2845757461849224,0.1703968386759838,0.081985795707095,-0.0944974828142462,-0.1764547000597685
-0.11041853003647266,-0.19192276928588298,-0.021916825526336586,0.2646296807062737,-0.02201807594901408,-0.09382738242390957,0.23656679276593992,0.29895907917197945,0.18477466023733544,0.09742707332608232,-0.0779600851445932,-0.1466607537498097
-0.03835561148561633,-0.19835321948980764,-0.07408355017919105,0.1982728374716768,0.03972048826540391,-0.13086406511055534,0.26616784153949163,0.3055909458339951,0.21601089726733927,0.12677817114976625,-0.08061832545472108,-0.1472810635718744
-0.043223612122444105,-0.17331173176603687,-0.058138773996960574,0.16752591641009668,0.023666671429821762,-0.11359346461085904,0.2762500173672104,0.32347005584207855,0.25087903148887963,0.1512999014874831,-0.062186642916678636,-0.1356377946430066
-0.0886778496838239,-0.14304448015018179,-0.012003714974636925,0.16966623677499207,-0.03297165505377379,-0.06975491829969523,0.28031971615725015,0.3469744047092486,0.28143173354963946,0.183343061065387,-0.02097331603296798,-0.09663713199364436
-0.13922471613866197,-0.12475618470701241,0.031541977528844405,0.20368875601966382,-0.0893035514176745,-0.02493218452229212,0.29115433286282116,0.36978088802066045,0.30212661758232706,0.22812030779071749,0.03036594107020136,-0.044999618879098695
-0.16037411062499174,-0.12844914450387726,0.04403544478365373,0.2677979115901823,-0.10263748980947202,-0.0029971933076174155,0.3206195615788654,0.38501371299615583,0.3094533328957912,0.2839848809142189,0.06784304432499556,-0.01922752716615128
-0.2068398511466493,-0.12184375870717828,0.07891348304347856,0.3262247753653282,-0.14134714081687622,0.028534854567878173,0.3498405795840092,0.39575225423871474,0.30934884899241877,0.2937590955895514,0.07136663799996568,-0.0906600259110759
-0.2886272183511698,-0.15701946403853503,0.11668044576483332,0.4000731377066277,-0.20206968901647848,0.029268585715853196,0.3610631482275503,0.39495171857168976,0.3120390123591772,0.26969193530936747,0.06106073016718799,-0.17496506692004163
-0.3663544624722841,-0.22430238398658076,0.13548454237536497,0.5163445263514446,-0.24446589113708428,0.009740287439941837,0.36273784256979624,0.38861849530231996,0.3236117648726057,0.24672665568800872,0.038100346798945854,-0.2526134395853343
-0.419399335504483,-0.2931550494896529,0.13674033905473598,0.6533215901420797,-0.25876218245041355,-0.010050026170492192,0.3612871674686088,0.38307056477209567,0.34299615643555226,0.2423170830960906,0.0031744234815807163,-0.31054813863037206
-0.4415479854574494,-0.31721620942841927,0.1396310286341282,0.7508669988017467,-0.25884450051054875,-0.003225002783546022,0.36214115114985757,0.3847274715473824,0.36325292023811245,0.26078966286230487,-0.04222399335559742,-0.34028232661454655
-0.46727252231997934,-0.2852119223169024,0.1732490919871962,0.7023969695409964,-0.2994850463662227,0.019100502450220186,0.37150443351365997,0.3842780560729188,0.3641900608155558,0.27760671304829176,-0.07087731470107769,-0.3314425371621158
-0.4929688347084257,-0.22758722727969993,0.21978030570013204,0.6331207843161161,-0.351061915320137,0.0624681389500375,0.3934589570701663,0.3871963180617682,0.36592112616809286,0.28240101603492923,-0.06917691161445069,-0.37397766696051055
-0.4884555702089435,-0.15221258395376247,0.25476290097344184,0.5687827410304238,-0.36960193855928963,0.1115849653776277,0.4155268274629931,0.39561594087070534,0.3759998729824554,0.2844348388124835,-0.05024479236379457,-0.4357343225446115
-0.4496837249322332,-0.057381792873774005,0.2763093801203725,0.4926976573777446,-0.3542162096781161,0.16283260500858845,0.42826152757009944,0.40975635354805934,0.3909062759748693,0.29095379911551084,-0.02528511645939339,-0.46602857217402227
-0.3931996963349062,0.06579995436782744,0.30014228066210596,0.3586421630319769,-0.3371662276497408,0.2224102299460922,0.4248523459819489,0.4282215564950258,0.3992407750044336,0.30782244315896085,-0.00405214396157566,-0.40196090604863594
-0.3652988899904788,0.25589482795937424,0.37715469530463125,0.17483318346998253,-0.3867950858987696,0.3553524003417404,0.4215960637253105,0.44760024829536404,0.4054775762068678,0.3347319484151559,0.03472034946660709,-0.28111557682415633
-0.3263577323281791,0.40441260006306246,0.4256855322826522,0.047033404997633595,-0.39936744713931815,0.4528298305359102,0.43322988252710937,0.4546768657482247,0.43072932405556785,0.3644630537097206,0.08796699631723859,-0.18315683726687534
-0.2730589452669546,0.43556390680689067,0.4052270351503976,-0.012828238123112528,-0.35754011225316346,0.4502014433068427,0.45764746729737127,0.45763645730941227,0.45854048525450447,0.39159747421982816,0.12670268731792972,-0.10550049261089496
-0.21217178896940628,0.3586985862971338,0.32509408047728594,-0.023033594606868088,-0.28110819461131714,0.36184791301015545,0.48706881422867343,0.46506951858228945,0.4754372186827705,0.4123306839384093,0.14212803630616117,-0.04920497587737896
-0.1576626724151189,0.2501572448122708,0.23330200210302274,-0.026672272757073602,-0.217571140039585,0.2628217516086867,0.5087286135858609,0.48552207275932235,0.4702393210234498,0.42374631860743844,0.14160793897459473,-0.017357729556888694
-0.10038423997378831,0.24716407149482855,0.19290692239685034,-0.08250121487661977,-0.17303670575289296,0.2386411647876586,0.4988924718370555,0.5047384465114876,0.4501397713379279,0.41340827659870266,0.18041442384676776,-0.015733640042919078
-0.05291499601183375,0.23469772871767433,0.15438922630937896,-0.12882117800631304,-0.11999862226737683,0.19312648262457466,0.4813865786647308,0.5130595662319816,0.42434971895099827,0.3914650098506578,0.2263089423266012,-0.01765322228745809
-0.02665643886533184,0.20563071081032616,0.12189124720295202,-0.12659129354721008,-0.07898945558865501,0.15176035955303357,0.470392912539823,0.5143902925667934,0.4068450703102763,0.38188561485243155,0.24386006918104855,-0.01798245818632156
-0.029731237942598333,0.17814251113842033,0.11010353805678037,-0.07970341733103367,-0.06824141716506386,0.13868203699557863,0.47250759319923713,0.5161994819360067,0.40822805538389706,0.3937664021275234,0.22356304290282888,-0.01671931871320298
-0.06749748078715984,0.18717284378671797,0.1402998495939998,-0.023931969607550715,-0.10353339227688207,0.17506138824698836,0.4886632053752621,0.5285278511873249,0.4355966185277976,0.4241377789393469,0.17618968307429048,-0.017409570022028135
-0.1495487599917846,0.19008681606653327,0.19747231402600918,0.022683874091373894,-0.1735448576245059,0.2005306306913812,0.5141357776933915,0.5486922685955292,0.46051504543530797,0.4284641824432055,0.1465726100329659,-0.01773069789752442
-0.2361993422802721,0.1878717873259967,0.2551781213282919,0.12140484274790639,-0.24286761850175867,0.2411195160459007,0.5346813594762696,0.553547808744403,0.4725836064197555,0.4207735465999489,0.15505904168840318,-0.017120436147411638
-0.3219268434402082,0.18368670847723004,0.3112628831908194,0.2256568963764028,-0.3142792615849959,0.28611379102858436,0.5471040123346942,0.558014224986367,0.4846352394281678,0.42322901338533697,0.19650275204243536,-0.017049881830280018
-0.4058099135200228,0.16783387715559495,0.3602060567458982,0.3101074498193082,-0.38636057540792523,0.316313035456858,0.5515737666972054,0.5717713734531592,0.49814286277126324,0.4420169367986049,0.25082625618971827,-0.017495297940160554
-0.4889299857984402,0.12352858646391557,0.39426942702989687,0.3654469986688614,-0.4537960036661731,0.3085165859009682,0.5512616627744675,0.599725615898628,0.506544941857538,0.4712514080548145,0.2852093543871338,-0.01739537335914138
-0.5292332570955782,0.10800960294025079,0.4137963975983795,0.43801314237733024,-0.4840368929203628,0.32710580670013817,0.5602544766659101,0.6040549709884113,0.5037086128070953,0.4884107453037971,0.2480875768781477,-0.01719200198310897
-0.5142476602838298,0.15698429643416426,0.4283439619902282,0.41889817008939506,-0.484534318289529,0.3676781167023886,0.5795202292742049,0.5939881806524839,0.512571407019216,0.4891191170259409,0.19412958835528357,-0.01725296476334211
-0.46026484786137234,0.22139264274230866,0.4242081015495061,0.31433692169832,-0.45956087363408027,0.3879001307765375,0.5879812874353822,0.5871790853642608,0.5195327533015703,0.47610284415831206,0.15323904779277112,-0.017300905377515042
-0.38268240868821934,0.26246842798006265,0.3922738501337877,0.17194949279714059,-0.40952224393883896,0.36810905260772553,0.5776067820620329,0.5898282971108836,0.5179340041496564,0.4578757730251611,0.13645307764893033,-0.017305378030241878
-0.29829702843347794,0.2498877151936977,0.3286374328544272,0.07037411866706196,-0.33426489583448443,0.30685245538678146,0.5508905582573207,0.5998449800680742,0.5066422886424179,0.4477530170955793,0.1411137890717655,-0.017400920481569816
-0.23541342548080205,0.23724576593400118,0.27956685999085945,0.012361032668277878,-0.2763860794275219,0.26495421916241146,0.5463347010045339,0.6084430481689201,0.507365891062383,0.4604527100497331,0.16058988975119126,-0.017400920481569816
-0.19805434925711005,0.28067787110895454,0.2761281583072884,-0.046254041592419276,-0.26239683315157836,0.2882042122483078,0.5557551377642834,0.6158202187062395,0.500036105203769,0.4746982531696763,0.19155260172685615,-0.017400920481569816
-0.16718703173539556,0.34869646211347205,0.2895068695300001,-0.10509567947344464,-0.2558152350410439,0.33098896187397947,0.5680194625127188,0.6252806334318459,0.4938614363075131,0.4905919735153308,0.23503735914132234,-0.017400920481569816
-0.13723204481403764,0.411418473924606,0.3008314016535748,-0.16360484177032342,-0.24129873378251548,0.36026930780673205,0.5798915794546805,0.638846263730639,0.4989525334882158,0.5113138597959702,0.2835737097431544,-0.017400920481569816
-0.11224103728677585,0.43886146514319996,0.2977181800823475,-0.21982339990221825,-0.21882332486577405,0.35191986593921953,0.5933921044323205,0.6573871920814424,0.5251627013180198,0.5414259748645504,0.3227082697792735,-0.017400920481569816
-0.11239662012061244,0.41014502735562514,0.28332877675374823,-0.23084750169378568,-0.22124981536391286,0.32922879383207615,0.6058925120768061,0.6746073754013812,0.5472039065632612,0.5592910803965979,0.3253876273746248,-0.017400920481569816
-0.10898238842938397,0.3444952413838047,0.24787325964138746,-0.19655081944338743,-0.20626546659311645,0.28477898224907106,0.6183113403716803,0.6907792449419876,0.5687601102866368,0.5622988165160353,0.32135907497261607,-0.017316372794240045
-0.11508226418113386,0.27713344480690727,0.21801236093834894,-0.1418784972842413,-0.19195695586392886,0.24020699858907194,0.6299250348401921,0.7082274969046882,0.587140649444659,0.5637360368368158,0.3225344022801917,-0.017402343244493145
-0.1440526905106731,0.23777217202079012,0.21781112918133025,-0.08149317237089572,-0.20141090522077726,0.22342410136426916,0.6371947326141715,0.7265152095903636,0.5939681468111365,0.5660072959864302,0.3348890174502788,-0.017547849526937324
-0.20721768130609405,0.25141581278775393,0.26757833994082775,-0.023445492926744343,-0.25877423870496064,0.2651896339784063,0.6349737994009347,0.7428913679510845,0.5778522773289414,0.5638254785606818,0.3593213711561024,-0.01738918512739679
-0.2454702806395657,0.2930774074061855,0.314575933032216,0.03811460053139035,-0.2935044026717268,0.32614039564519537,0.6316166387664169,0.7442438785436996,0.5613555854223913,0.5467902825924323,0.369092249628931,-0.016974488816680317
-0.24847201423746532,0.3136645819897707,0.32700539149323776,0.0743173526235287,-0.2909136834694753,0.35145671785049565,0.6404154983218612,0.7426931029465798,0.5685877433995404,0.5496255421712282,0.33659515483302077,-0.017893711924990757
-0.2519607928937289,0.31354961848309176,0.32931576459585327,0.07666726887416965,-0.29470802852553735,0.35347264186473093,0.651375601684339,0.7535633525294286,0.5879407396008764,0.5754882972388949,0.3041650415682606,-0.017682386186178223
-0.2594316727865509,0.2920205790275602,0.32352035478447194,0.06361584481099757,-0.3058174966588074,0.3378902568876347,0.6626021355888845,0.7798600562236734,0.6113145726094896,0.6118184733237091,0.30426678910361593,-0.016745619942766507
-0.25140460964984185,0.24888876692552397,0.29629964070524095,0.07246961520204967,-0.29465318005277774,0.3063974729203019,0.6778996871527396,0.8149974017319922,0.632472030545473,0.6340961663174634,0.36055263908909174,-0.017438495526935854
-0.19275066887337491,0.2018183721566808,0.23272217563391057,0.08969617914507642,-0.21873713701990286,0.25010913115421196,0.7059972507350595,0.8332050547971905,0.6457503645627535,0.621716268376706,0.41319896957356467,-0.01875049086096468
-0.15155817172885913,0.2000773554964031,0.20387930427350434,0.024410345258105676,-0.18157040840553154,0.21562172651812475,0.7131595768873416,0.8483386897595745,0.6472229522856375,0.6046579791092431,0.4239083209748941,-0.016192714535439287
-0.11827627292228511,0.23571511496199637,0.19927413545184508,-0.07852052606512179,-0.17408323769660836,0.21660783130482422,0.7046046384666897,0.8648100083811142,0.6505917568517722,0.5914048593512229,0.40373200240630536,-0.01698530987906329
-0.08928014925594563,0.29932660566242036,0.21169858622165183,-0.174730765373001,-0.18046535947377168,0.2521697144024456,0.6934864643961792,0.8798912090749249,0.6629704092410258,0.5857141690503055,0.36486475613093444,-0.019743318664734204
-0.06615115711914356,0.3781027457624566,0.23576061841536122,-0.21972991350642904,-0.1805013674426988,0.30909909269426733,0.6982010863781921,0.885660315930143,0.6859564281087751,0.587725816870896,0.3214228659384374,-0.0172052661104746
-0.0959544952236709,0.43265472572213737,0.28352891755655935,-0.22713909877771782,-0.20747917507230787,0.346694740796374,0.7014116593215498,0.8705334202727973,0.6891346368882517,0.589010131444363,0.27965366426372185,-0.010454039399629241
-0.10184265679588908,0.4075870221961221,0.27487287470365707,-0.19495739755336847,-0.20194378573291627,0.33186093601659633,0.6909259264628613,0.8476285821606289,0.6804646548775263,0.5851252128354625,0.22976484026681665,-0.03634259578801243
-0.07933700567150126,0.3409692937419719,0.22596832169920206,-0.14586789413733,-0.16084044951722698,0.2818187839632234,0.6812820498240437,0.8342022961212391,0.6706687354925124,0.5873290420570716,0.19226281419919483,-0.06470703070495917
-0.04234810276527727,0.2598554647660263,0.1599144985499763,-0.1103075727386479,-0.1027655412527162,0.2097225846656183,0.6819968274613665,0.8409003419922403,0.6656886937406855,0.5976291257898181,0.18330960023004444,-0.06663830641004702
-0.017472910080728772,0.18539323914403125,0.10544172759636773,-0.12251479812377271,-0.06181770451050585,0.1284705829637363,0.6988399132282958,0.8730135839137093,0.6684764603178417,0.61067801666902,0.21468215508734162,-0.01695738283800697
0.012037210228592983,0.12737723208722648,0.056123947865585576,-0.12808823833646987,-0.03473892754938807,0.08208586195722217,0.7238001208042906,0.9152834545800836,0.6867672226305197,0.5973217897724602,0.258447298371042,-0.0018306862267574234
0.02869812941068312,0.16898601508997513,0.06581611772984497,-0.13182602113064226,-0.030455305178886352,0.12064524836365657,0.747807273991051,0.9580935883108175,0.7179137772459474,0.5894047395752147,0.3067681660486793,-0.032371567711157706
0.02972274152349486,0.26952557149458684,0.11586938851690186,-0.19600277490824233,-0.054029691582340326,0.1900237793646082,0.7743429986184189,1.0005302204959536,0.7606592548008901,0.6042802944703011,0.37388186595375333,-0.015166296092774215
0.01358210144715617,0.39320931800707437,0.1892578954947333,-0.31091647531402916,-0.1059668228706735,0.268548540514653,0.8064236517225313,1.0400598749043437,0.8078753165416983,0.6403703093542168,0.4575194719954809,0.08192669337007862
-0.019477507541158765,0.5082845797318037,0.2697868142319779,-0.4150109615190619,-0.18205329405755827,0.3574652481582372,0.84608250466158,1.0730713401569014,0.8475391242867334,0.6820565604485178,0.5425583225889623,0.2419303210562605
-0.05788686391853366,0.6929558240424896,0.38907710529543155,-0.4543920823694201,-0.2607304711827839,0.5230277554637159,0.8758417543169346,1.098468382534074,0.8595713488963592,0.7105015724009134,0.5916439778232031,0.27034589959217364
-0.04855242072872587,0.8665080764244064,0.47034339346658083,-0.589717139359489,-0.3008446734721845,0.6380543350921676,0.8815090722885822,1.121312061267711,0.8657363937201387,0.7343151850971228,0.6150515071733037,0.20111228111427326
-0.03181128913373841,0.9769470138399285,0.5147241614685886,-0.7320962377584438,-0.3303666658609586,0.7002632227536089,0.8712262538957226,1.1378847411935067,0.863452889588953,0.7460599836395755,0.6145820279005754,0.1359563094165205
-0.0329676624360387,1.0158650499637134,0.53515363725276,-0.7957261096949673,-0.3569862269730731,0.7278263735994908,0.8551164868007334,1.148958053468766,0.8511511621409733,0.7432369879423406,0.5977746793121115,0.10984573902967543
-0.0646812579088076,1.0068023869961142,0.5521082918526603,-0.704396471819082,-0.3735095454532528,0.7520687457848445,0.8448443988065668,1.1589495838622417,0.8294027530543878,0.7278849971990514,0.5769958871585094,0.11071452851695812
-0.04447750057893894,0.9686650218927069,0.5191423083047825,-0.6731393372653319,-0.32719107160034716,0.7058081147744907,0.8329999697982128,1.1817536618290438,0.8342276438957626,0.7248885484453997,0.5597340640478328,0.07309434515068765
-0.00025195250009767047,0.9316443178310011,0.4704324575924283,-0.7402893631586571,-0.2859421102525889,0.6437969163044657,0.8207176537465122,1.2127889090291122,0.8534726030380541,0.728601379332407,0.5201745529116328,0.03413786662635205
0.06317589900939691,0.8918278249958588,0.4072756425869796,-0.7899531872539372,-0.22732794095591236,0.5862329710052944,0.8223135345274908,1.2469662592763857,0.8628723456774368,0.7281141528229645,0.48463485276180723,-0.005125477985693994
0.1601542780817528,0.8516193533847582,0.3211447651989583,-0.8199037734334184,-0.13086213573651226,0.5260689842820045,0.8352642699747995,1.2818981006574137,0.8657578526581964,0.724796820384816,0.4743872232268824,-0.029766381717018276
0.31369190529014246,0.8193311273790127,0.20061580858390618,-0.9056769752070595,0.01761494000932614,0.4402120477530645,0.8449943826756868,1.316844104200711,0.8850128171598826,0.7291264460688148,0.5060303178777252,-0.013939912143900718
0.42525620990003143,0.8460899658783918,0.1383858299419595,-1.1039052280724941,0.08862457956016438,0.3930317092701977,0.8382257639722551,1.350081835310542,0.9503361622953942,0.7670756825260145,0.5501728292139579,0.10011781206251721
0.4219266568404086,0.9205303052085526,0.1782209917328082,-1.1767557171403225,0.06364997840950991,0.437488367414289,0.8653999003935524,1.3850281347261164,1.0005840064567013,0.8119090814564712,0.5881073155081156,0.203758028034904
0.3798353390388686,1.0327780879808814,0.26345398124210856,-1.20324752799488,0.0003443813246693335,0.5368336397091662,0.9091126411622708,1.418585920464243,1.036750475146585,0.8362882281493744,0.6072584843608022,0.2875209063623756
0.3375657803909032,1.1585701416904441,0.35564465735197703,-1.2316525061283528,-0.07222578230735445,0.6552596760668898,0.9509063737562321,1.4486916569958335,1.065846932616766,0.8355143415524038,0.6110282102347919,0.35898327921503764
0.30702780712059347,1.2615963270142057,0.4283797529432105,-1.2848388772657748,-0.14346278502581894,0.7558735945037028,0.9720486463035044,1.4741631982916334,1.0982047513697522,0.8221934265154406,0.6158818532002801,0.4342688308420237
0.20017695355402226,1.2967836580887488,0.518678209772266,-1.1714878525507542,-0.23403382912978732,0.8346367696536735,0.9971528779524159,1.4988502215407729,1.1009309546484527,0.8448190877325872,0.67964439370213,0.41194847827027037
0.08653854355939603,1.3537382686940116,0.6245718410932074,-1.0918743537629982,-0.33493960861755356,0.9186422910091712,1.01344459575886,1.5245467436490927,1.0990982171710701,0.8810016293218276,0.7268892479567315,0.3540398042367215
0.006664932249354024,1.4188726414178259,0.7116726351999113,-1.0780003842969577,-0.4202671269483476,0.99253888066519,1.0144014318914407,1.5506107340730655,1.1101284270683702,0.9058245625252849,0.7297772651211348,0.36610809478557743
-0.015354182052635258,1.4631835068273267,0.7489871628525292,-1.1015792541573088,-0.4573047058910873,1.0343617847296855,1.0036296676756893,1.5768052976473286,1.1326319529600823,0.9090026543584757,0.7103328008042153,0.45675560471031823
0.0323151369291765,1.449562918289389,0.7097510406550424,-1.096950878122643,-0.4106494307762803,1.018863455390773,0.9921505607525525,1.6026863166414114,1.1519303397490084,0.8910648261337138,0.7249238804960553,0.5631519618527933
0.15170049680242123,1.4372807776585041,0.6225051171641078,-1.1923979152653852,-0.30474582370194025,0.9588633778419525,0.9876099826644967,1.6142728333720682,1.1531103212111213,0.8724540171639538,0.7817823847426424,0.5294411031597334
0.22428128273260897,1.4695820589669777,0.5895372613503141,-1.3429243367059547,-0.26280815519449824,0.9336495599636486,1.002674883766275,1.6108083220175844,1.147138029002404,0.8738998018938553,0.7667770885723054,0.50947561297153
0.26125496441673235,1.4958328180917668,0.5776876550912379,-1.4465165252656849,-0.2501093885497128,0.9252659478717669,1.0235964942149252,1.6054544939497866,1.137440999741963,0.8850082333482505,0.7152762343791019,0.5422414445512773
0.28183140262109446,1.4768019812386035,0.5541129684280673,-1.4598217071555046,-0.23275728943131288,0.9054623995006023,1.0378403428282843,1.6093604266263133,1.1304130497330083,0.8946752894148791,0.6721309118666984,0.6040019667155002
0.3095624472275386,1.3828626924003868,0.4878701399493766,-1.38157498599696,-0.17878704499916664,0.8397880721554251,1.0342669777316778,1.631649630439936,1.1343748401231855,0.8908460951198596,0.6876340604529587,0.6286235523697836
0.28583986693054225,1.2572910794101302,0.4405903441306861,-1.2570488236932926,-0.14905884849525838,0.7518597771356142,1.0326525135066873,1.6531284605353913,1.1472955059270797,0.865464337729819,0.7158744286493108,0.6223605360676968
0.2589233708259943,1.1935075276960792,0.4266672366747727,-1.1833300004286866,-0.14084245957966846,0.7057453311336116,1.0309016214377653,1.6514910124031765,1.1464650655260866,0.8316319665897496,0.7156258738899254,0.6351687657719115
0.2619935025581837,1.194450857588226,0.42505920371052786,-1.1890467585578648,-0.1400668281176015,0.7058177853666951,1.0176587388699065,1.636751347012966,1.1378510158606603,0.805894606011191,0.6925414762230016,0.6289224021338216
0.31089016153516885,1.2615866138979825,0.4257528583144532,-1.290371952201528,-0.13167753376575533,0.7435463252622354,0.9942208592016002,1.6175367018517988,1.1262125880475653,0.789680691407575,0.6464846992692496,0.5989010057969869
0.4088314709293648,1.3928981445920008,0.425545558467263,-1.4919342458853773,-0.09923425172522463,0.7996791649481555,0.9705771984650328,1.6015518351259863,1.115079683492044,0.773378501750302,0.5752077263416675,0.5643903074870846
0.5547385560629781,1.5851711863432183,0.42354737262494674,-1.784901076801045,-0.023121633708814093,0.8525909708423178,0.9484656322087863,1.5771103161770983,1.0846273272159621,0.7305349838901546,0.50247959613171,0.5704589053828151
0.6604020266801969,1.7452829840585973,0.43263514752631904,-2.039675855154235,0.01356079073268747,0.9071353651106439,0.9114593859380289,1.5456155639337719,1.0492404416344074,0.6954245607659063,0.46731887191073995,0.5327381128077213
0.7197605398682725,1.8595837884457582,0.45003388622713353,-2.208857290440492,0.020822320235940675,0.9582413871236449,0.8795973895589945,1.5115780375764563,1.016685431397729,0.6637455677984959,0.4641386389365832,0.46702457091509764
0.7385554525044321,1.926658216539485,0.4711315627581471,-2.277786224597431,0.014637940866287117,0.9988489578076356,0.8681533784909462,1.4772962371698326,0.9866660839598264,0.6295958506808864,0.47382402892425896,0.41553116508825433
0.7297431458108041,1.9530995832521292,0.4904605873914606,-2.255093964748526,0.013538916222672472,1.020798783854845,0.8871517151593082,1.4434617383978021,0.9536332238733932,0.587088773738692,0.4674159107352126,0.43752420398486735
0.6328096418282366,1.8911877710401832,0.525014216458559,-2.1034114090634866,-0.0464091672477324,1.0230999681971014,0.8848353322592634,1.4030592942339664,0.9194899922982317,0.5683730208875399,0.4404761185433351,0.5177282220326873
0.47721446888963925,1.7707676245288886,0.5698582081297281,-1.8537004440041835,-0.139473646259269,1.0111993963406969,0.8387585381048921,1.34703619553956,0.8929587690442397,0.5651884550991467,0.4365549561888369,0.5801246026734801
0.3174579162388936,1.6245709198427123,0.6045160572995893,-1.5777163645097692,-0.22918803897490245,0.9853881805112982,0.7832041946011212,1.2801999087597458,0.8700745266445189,0.5631327275216415,0.427828249483993,0.615512605044597
0.19061408305240082,1.485013230115809,0.6201817741890073,-1.3375759955026858,-0.2969860945835545,0.9540458742878781,0.7439349862698521,1.2123702437982866,0.8448384730768043,0.5501328794476286,0.39374269054134914,0.6128175216320797
0.12226327934689706,1.385495551407666,0.6163495680482407,-1.1889350615387695,-0.3353873833509335,0.9309544951814565,0.7396595655329741,1.1566794856056437,0.8096229619776422,0.5152806772647962,0.32094541737087756,0.5624727999367596
0.11466005437054745,1.345175415336567,0.6011589539451234,-1.1204498330538404,-0.3206934018433847,0.9099257005178415,0.7250031549457533,1.107716966389706,0.7568026094450175,0.44535841466807935,0.2688323774656453,0.5092131152968654
0.14757412815101892,1.3165511730438204,0.564366278958123,-1.1225286217356583,-0.27101208031557233,0.8633153381756863,0.6653257635377784,1.0448130638018842,0.701186945297898,0.38013745449836595,0.24526546682324982,0.5203567661426615
0.23512479224235822,1.3221666240192385,0.5077658295684578,-1.2420898680659949,-0.20100354331648562,0.8156425783026385,0.5972326224466933,0.9791099001085972,0.6473405211895623,0.3219737331770942,0.2196350392076563,0.5458769065389786
0.36432908492836724,1.3549992121236187,0.436626537660236,-1.4325175722887464,-0.11685173099972614,0.7780629205057086,0.5414748226297637,0.9188880387204599,0.5949746413688789,0.26797810921472387,0.18265665433337033,0.5478552073357805
0.5000848466553643,1.385367473358174,0.3597958087178434,-1.5792050578762111,-0.021024680360007816,0.7516905079014271,0.5073479619382791,0.8696484424099576,0.5403620737331981,0.21216587927989697,0.13922564520255487,0.4981139250824763
0.5606181249632054,1.3415542874632147,0.29658661674748166,-1.5607656807797439,0.05691576770681792,0.6977289741413327,0.45717431257620195,0.8047031178976426,0.47593889088283137,0.1686012894149215,0.09797187631342281,0.45345027762094464
0.6212574913290052,1.3420871988763483,0.2556898077707998,-1.6573030986399455,0.10649706262915544,0.6548028719453453,0.4141330397673553,0.7258237423023929,0.41363708811641114,0.12783040134949286,0.04811125318103252,0.4323264445789534
0.7001479415877128,1.3632980910557686,0.21284049725510984,-1.7951517911764865,0.15729024689409918,0.6234586158428819,0.3872765798738631,0.6512792086498764,0.36032944636278386,0.08618874078956132,0.008109799547336234,0.4355596474833068
0.7707992408404368,1.3558647178177963,0.16112579638312552,-1.8714314901882168,0.2107951490387231,0.5892215441307295,0.3687834808266998,0.5892467353627359,0.31521331555726106,0.043493257564308246,-0.019351498321878532,0.460513438764372
0.7769446919770532,1.2553919428037261,0.10623874881909932,-1.7683085737381328,0.24884931507508248,0.5280246126480304,0.33923631543653876,0.5404205563873696,0.2718090696276843,0.0017200313536787598,-0.04305673261705478,0.4977102603805248
0.6906383046048952,1.100437312982886,0.08661332809144408,-1.5920988596205703,0.22385609266582365,0.4461271987730666,0.2893715820727942,0.4833116214862795,0.21742666305870362,-0.04189107583518556,-0.09068638907180267,0.44130140752347596
0.6280376733842773,0.9634702164607039,0.059974406917853176,-1.412872344297601,0.2209479401646091,0.37559231351247063,0.237865992593643,0.41203194853669095,0.17057709655454759,-0.07721434228302161,-0.11256236675356665,0.31443618298312104
0.5937627423668107,0.8494152716641838,0.02567145235254174,-1.246776426010873,0.23595350601521925,0.32163464337002656,0.18719277459366723,0.3369182335341826,0.13745461233138753,-0.10654294611928466,-0.1188663885118497,0.21322541213168766
0.5636402761196009,0.7449604832350525,-0.006604642969145364,-1.1048398441576381,0.2442556399691181,0.27496289384761685,0.1374132320450519,0.2672075069080671,0.11091460831517659,-0.13323451340929657,-0.1254848010942817,0.17070904509176985
0.4949830675392625,0.6236816479081114,-0.021213114807925298,-0.9910167745573515,0.20957403396801272,0.21602224241117363,0.08732518998773496,0.21116204657710158,0.07484597156124088,-0.1614420164757472,-0.15086722040019196,0.17413006587239557
0.40159201213155254,0.46176491466882974,-0.039543258554961304,-0.8171631181145501,0.17767346393159925,0.1292934636415604,0.0453327001631352,0.16081174125388056,0.02709942997716716,-0.1894846389574024,-0.15539311606095196,0.10423842267786801
0.34960373293778674,0.3620843824016377,-0.05456556445839336,-0.6591521948199197,0.17577936494878887,0.08424825204560332,0.02133162701921105,0.10527528735670508,0.0023129439712608704,-0.21547841641732177,-0.14949409040890013,0.025553416645397252
0.31732550485931527,0.31760736619866875,-0.05510350855609814,-0.5434569229414753,0.17253051365431543,0.07899405113460115,0.00757120458516471,0.05701300879311715,-0.012571790631116448,-0.225975088325668,-0.1480959990390684,-0.009180826978142338
0.3018609683322321,0.3104151392410464,-0.04823559677859856,-0.4903888876939912,0.16585180475971004,0.09119792678976511,0.0018446865027377534,0.024354562593979376,-0.0273662281475378,-0.21500822979546352,-0.1432258995195144,0.006835884506327846
0.3131983099727922,0.3157045099816478,-0.05326220206045101,-0.5168414401634943,0.17333184760798004,0.08502325841247031,0.0051881029325292595,0.012010294884015114,-0.04909821460397932,-0.18291096823165068,-0.1125752115438502,0.048509433418870346
